0.014414,-57.908,-57.923,28.947,28.873,-58.034,107,112.69,34.836,-42.142,-79.847,-110.44
-18.324,-66.492,-48.168,42.408,15.097,-58.333,133.2,127.07,29.797,-63.182,-86.018,-119.53
-30.339,-56.556,-26.217,43.447,-2.6792,-42.418,127.78,111.42,13.713,-69.247,-79.381,-104.18
-27.344,-44.329,-16.985,35.837,-5.5552,-31.598,117.37,99.151,0.72833,-67.314,-86.023,-101.05
-10.269,-25.354,-15.085,17.812,2.4967,-20.493,95.227,78.324,-17.195,-55.624,-88.212,-96.291
9.7117,-2.5603,-12.272,-3.5757,11.147,-6.926,78.051,66.106,-24.245,-41.222,-85.152,-96.01
18.484,18.069,-0.41483,-18.276,10.707,9.2939,62.712,55.32,-23.603,-26.649,-71.201,-90.465
14.803,27.866,13.064,-21.335,1.0724,21.06,55.033,50.174,-21.599,-20.985,-52.948,-83.188
1.1866,30.133,28.946,-15.66,-13.914,30.602,53.914,44.971,-18.116,-23.044,-33.069,-71.112
-12.088,31.516,43.604,-9.7141,-27.833,37.441,53.329,39.832,-16.821,-27.867,-20.398,-59.774
-17.139,35.903,53.042,-9.382,-35.099,44.535,44.963,30.865,-17.789,-28.15,-17.94,-51.496
-13.334,42.775,56.109,-14.72,-34.715,49.416,30.599,17.816,-21.236,-21.053,-23.06,-49.077
2.1233,57.085,54.962,-29.604,-26.424,56.019,11.03,3.8903,-25.046,-7.2424,-32.013,-49.799
21.238,73.902,52.664,-47.57,-15.708,63.319,-7.4923,-9.4699,-28.57,6.5058,-33.581,-51.594
29.943,81.861,51.917,-55.902,-10.99,66.789,-19.535,-19.248,-30.736,11.645,-28.117,-53.272
26.944,80.092,53.148,-53.518,-13.1,67.346,-20.009,-20.722,-29.858,8.9415,-15.847,-51.721
13.058,73.9,60.842,-43.479,-23.894,68.384,-13.964,-17.01,-24.934,2.1531,-3.1001,-45.985
-2.7655,65.617,68.383,-31.426,-35.574,66.881,-6.8857,-16.121,-23.127,-6.8384,1.6306,-38.758
-11.097,62.907,74.004,-25.905,-42.55,68.565,-5.341,-18.178,-24.765,-12.197,0.72238,-34.756
-6.4823,67.47,73.952,-30.494,-40.217,70.573,-11.842,-24.258,-29.487,-9.3783,-8.4124,-34.36
8.0369,76.892,68.855,-42.464,-30.409,73.13,-24.111,-33.105,-35.315,-1.0069,-21.02,-39.053
23.849,85.425,61.577,-54.637,-18.864,74.129,-35.738,-39.976,-39.156,7.5263,-26.043,-44.907
31.545,88.453,56.908,-59.999,-12.682,73.056,-39.67,-42.53,-38.603,12.125,-21.413,-47.836
27.077,86.038,58.961,-56.557,-15.942,73.693,-35.657,-39.279,-36.661,9.4211,-11.436,-46.785
13.078,79.826,66.748,-46.452,-26.835,74.114,-26.068,-32.935,-32.012,0.18934,0.021728,-41.937
-2.8403,71.739,74.579,-34.449,-38.71,73.152,-17.435,-27.122,-27.388,-7.4992,5.4705,-35.878
-10.957,68.089,79.046,-28.566,-45.001,73.598,-13.226,-26.632,-27.767,-12.153,3.1383,-31.687
-7.2678,69.84,77.108,-31.286,-42.188,73.397,-18.029,-30.831,-31.221,-9.387,-6.554,-31.423
6.304,77.938,71.634,-42.121,-32.665,74.983,-29.06,-38.811,-35.868,-0.19559,-18.828,-35.992
23.813,87.732,63.919,-55.772,-20.053,76.546,-39.686,-45.031,-39.751,8.7235,-24.778,-42.123
31.994,91.526,59.532,-61.76,-13.769,75.457,-43.664,-47.477,-40.866,12.493,-23.247,-46.362
28.229,89.025,60.797,-58.627,-16.284,74.885,-39.694,-44.315,-37.859,10.052,-13.361,-46.516
13.988,81.947,67.959,-47.968,-26.986,75.116,-29.067,-37.04,-33.049,2.0893,-2.1447,-42.095
-1.7709,73.677,75.448,-35.953,-38.61,75.311,-19.363,-30.918,-29.354,-6.5111,2.6367,-35.537
-10.02,70.406,80.426,-30.193,-45.223,75.316,-15.253,-29.047,-27.682,-11.231,1.7259,-30.645
-6.1888,74.388,80.577,-34.1,-43.383,77.487,-20.022,-32.745,-29.976,-7.6496,-7.4552,-30.383
7.1516,82.101,74.949,-44.626,-33.899,79.449,-31.827,-40.854,-35.918,0.084781,-20.813,-35.991
23.854,89.174,65.319,-56.514,-20.732,78.054,-41.895,-46.989,-39.597,7.4205,-27.924,-43.168
31.877,93.013,61.136,-62.445,-14.629,76.861,-46.903,-49.547,-41.441,12.13,-25.782,-47.398
28.983,91.135,62.152,-60.059,-16.584,77.385,-41.878,-45.662,-38.323,10.027,-14.626,-46.87
14.956,83.891,68.935,-49.423,-26.99,77.538,-31.938,-37.877,-31.937,3.0509,-2.1245,-41.918
-1.7958,75.749,77.545,-36.976,-39.67,77.348,-22.384,-33.457,-28.645,-5.6073,2.39,-35.843
-10.359,71.759,82.118,-30.7,-46.238,76.841,-18.281,-31.486,-28.108,-9.9814,0.28795,-32.064
-8.0653,71.904,79.969,-31.919,-44.017,75.981,-22.953,-35.352,-31.856,-8.1887,-10.361,-33.27
5.1521,80.931,75.779,-43.041,-35.313,79.172,-34.141,-43.129,-36.954,0.04567,-21.889,-38.809
21.964,90.43,68.466,-56.197,-23.251,80.612,-43.189,-48.713,-39.398,9.5478,-26.586,-44.127
31.596,93.519,61.923,-62.557,-15.164,78.194,-47.202,-49.969,-39.772,14.152,-23.546,-48.354
28.314,90.346,62.032,-59.33,-16.859,76.09,-43.106,-46.184,-36.958,11.336,-14.071,-48.537
13.885,83.717,69.833,-48.801,-27.974,76.823,-32.744,-39.115,-31.042,3.2136,-2.2473,-44.049
-2.9725,75.785,78.758,-36.406,-40.865,77.243,-22.386,-32.859,-27.634,-4.8501,2.2356,-37.763
-12.333,72.336,84.669,-30.001,-48.501,78.521,-18.333,-31.128,-26.763,-9.7887,-0.66355,-33.867
-6.6906,76.444,83.135,-34.877,-44.913,79.776,-22.28,-34.083,-28.971,-6.1773,-8.5768,-32.597
8.7962,84.834,76.037,-46.815,-33.621,81.245,-33.094,-40.876,-34.079,0.95122,-21.027,-37.988
22.886,91.419,68.533,-57.153,-22.823,79.971,-44.591,-48.086,-38.591,9.766,-27.399,-44.969
32.349,95.947,63.598,-64.148,-15.624,79.775,-47.022,-48.192,-38.192,15.333,-23.409,-48.162
26.748,90.787,64.039,-58.767,-18.645,77.411,-42.657,-44.967,-35.49,11.633,-14.112,-48.674
11.781,82.746,70.965,-47.264,-29.592,76.855,-31.983,-37.162,-30.284,3.8293,-2.2893,-43.872
-3.2832,73.535,76.818,-35.126,-40.051,75.176,-20.077,-31.165,-24.998,-4.4397,2.5248,-36.782
-9.3448,71.038,80.383,-30.847,-44.864,75.713,-17.266,-30.065,-24.745,-9.183,0.10296,-33.106
-4.5915,74.693,79.285,-35.051,-41.938,76.98,-23.273,-34.447,-28.175,-6.3573,-9.53,-34.228
10.225,82.954,72.729,-46.589,-31.252,77.903,-33.819,-42.057,-33.017,1.0717,-21.908,-39.113
22.599,88.699,66.1,-55.649,-21.75,78.515,-43.809,-49.198,-37.568,9.6391,-28.757,-46.059
30.021,93.221,63.2,-61.621,-16.59,78.749,-47.164,-50.184,-37.346,15.78,-25.119,-48.324
30.165,94.328,64.164,-62.247,-17,79.045,-42.567,-44.146,-33.087,13.425,-14.217,-46.671
14.94,85.829,70.89,-50.384,-27.975,79.428,-32.148,-38.108,-27.992,5.0555,-3.1337,-42.857
-1.7931,77.819,79.613,-38.013,-40.703,79.383,-22.279,-31.764,-24.351,-3.6456,2.7529,-36.937
-10.274,73.973,84.247,-31.85,-47.261,79.089,-18.384,-30.572,-23.011,-7.5632,1.3314,-32.573
-8.8064,76.545,85.352,-33.869,-47.079,80.864,-22.283,-34.854,-26.894,-4.9543,-9.3398,-33.162
5.0046,85.025,80.02,-45.015,-37.508,83.569,-32.982,-41.95,-31.98,1.1226,-21.836,-38.036
21.81,93.322,71.512,-57.566,-24.851,83.012,-43.758,-47.788,-35.547,10.632,-27.739,-44.171
30.348,96.575,66.228,-63.461,-17.94,81.883,-47.284,-48.981,-35.264,14.698,-24.062,-47.95
28.098,93.333,65.235,-60.716,-18.568,79.734,-41.817,-44.532,-31.816,10.619,-13.877,-46.734
13.926,85.802,71.877,-49.864,-28.976,78.686,-31.97,-37.021,-27.006,1.0899,-3.3692,-42.009
-2.8418,76.606,79.447,-36.882,-41.145,78.082,-22.348,-32.077,-23.591,-7.5765,0.49196,-36.998
-10.923,73.581,84.504,-31.329,-47.714,79.056,-18.352,-29.835,-23.129,-12.024,-1.832,-32.461
-7.8868,75.974,83.861,-34.044,-45.874,79.827,-22.293,-34.607,-26.863,-10.132,-12.203,-33.892
5.8934,83.866,77.973,-44.88,-36.04,81.167,-32.961,-41.029,-31.101,-1.2388,-24.169,-39.056
24.567,95.147,70.58,-59.857,-23.006,83.461,-42.411,-47.064,-34.65,7.7037,-29.3,-44.013
33.698,99.197,65.499,-66.448,-15.9,82.821,-45.55,-48.957,-35.918,11.589,-27.683,-48.419
28.435,95.18,66.745,-61.808,-19.155,81.431,-41.755,-45.849,-32.836,8.3224,-18.529,-48.496
12.137,87.02,74.883,-49.579,-31.373,80.765,-31.82,-39.241,-28.032,0.057182,-6.1356,-44.088
-3.7239,77.444,81.168,-36.86,-42.446,79.419,-21.426,-32.771,-24.556,-8.6886,-0.21789,-37.581
-12.523,75.045,87.569,-31.261,-50.046,81.227,-16.88,-31.211,-23.926,-14.747,-1.7946,-32.535
-8.7126,78.761,87.473,-35.024,-48.093,83.181,-20.138,-33.996,-25.158,-12.441,-11.553,-33.133
6.3229,86.856,80.533,-46.589,-37.105,83.632,-31.117,-40.95,-30.956,-4.0868,-23.897,-38.122
22.473,95.664,73.191,-59.069,-25.359,84.502,-41.413,-46.747,-34.329,3.5172,-29.487,-43.965
29.871,99.634,69.763,-64.753,-19.946,84.573,-44.541,-48.344,-35.331,7.7768,-27.171,-48.925
26.907,96.316,69.409,-61.612,-21.251,83.607,-40.779,-45.424,-32.367,3.5449,-17.365,-49.008
13.161,88.044,74.882,-50.602,-30.861,82.458,-29.931,-37.905,-26.725,-4.1846,-5.3506,-42.937
-3.1159,80.766,83.882,-38.825,-43.499,82.228,-19.354,-32.127,-22.626,-13.553,-0.054508,-36.925
-12.072,77.009,89.081,-32.468,-50.577,83.12,-15.25,-29.394,-22.185,-18.045,-2.6732,-32.6
-8.2008,79.534,87.735,-35.667,-47.968,83.554,-20.034,-33.413,-25.151,-16.107,-14.524,-33.098
5.2171,87.165,81.948,-46.191,-38.366,85.504,-30.957,-41.047,-29.941,-8.1056,-26.828,-38.999
21.58,95.218,73.639,-58.399,-26.029,85.402,-40.814,-46.971,-34.877,0.4684,-32.573,-45.072
28.77,98.989,70.218,-63.88,-20.724,85.694,-46.017,-49.148,-35.365,3.3493,-30.063,-49.465
26.011,97.136,71.125,-61.574,-22.557,84.427,-40.174,-44.46,-31.744,1.1614,-20.539,-48.814
12.072,90.026,77.954,-51.049,-32.941,83.893,-29.761,-36.939,-27.051,-7.9059,-7.9527,-43.974
-2.7507,83.619,86.37,-40.434,-44.56,85.053,-19.514,-30.008,-22.316,-17.739,-1.7464,-37.773
-13.281,76.79,90.071,-31.754,-51.676,83.385,-16.997,-29.754,-22.886,-23.791,-7.2284,-34.181
-9.0286,82.508,91.536,-36.74,-50.282,87.066,-20.731,-33.12,-25.485,-20.781,-16.919,-34.547
7.1949,92.062,84.868,-49.629,-38.836,89.199,-29.898,-39.851,-29.806,-11.896,-27.968,-38.127
22.607,98.39,75.783,-60.499,-26.588,87.329,-40.877,-45.88,-33.764,-3.48,-34.585,-45.166
31.213,102.79,71.575,-67.001,-20.181,88.384,-44.109,-46.84,-34.878,0.75112,-32.066,-49.358
26.403,99.251,72.847,-62.827,-23.222,86.286,-39.619,-43.297,-31.812,-3.3829,-22.514,-48.953
12.087,90.949,78.863,-51.518,-33.388,84.85,-29.088,-35.974,-27.14,-13.047,-10.055,-43.758
-2.9242,81.603,84.527,-39.339,-43.726,83.09,-19.362,-30.193,-23.148,-23.699,-4.643,-38.277
-12.571,78.182,90.753,-32.805,-51.662,84.453,-15.233,-29.153,-22.646,-27.895,-8.5363,-34.587
-9.9271,79.755,89.683,-34.914,-49.805,84.728,-20.074,-32.695,-26.254,-26.845,-18.517,-35.789
3.0775,88.04,84.963,-45.559,-40.943,87.296,-30.885,-40.889,-31.727,-19.189,-31.873,-41.228
21.243,97.436,76.193,-59.339,-27.475,86.819,-40.96,-46.839,-35.807,-10.315,-38.598,-46.954
29.862,100.43,70.568,-65.146,-20.353,85.496,-45.441,-47.864,-36.832,-6.3593,-36.065,-51.556
27.638,98.082,70.443,-62.86,-21.402,84.265,-39.723,-44.293,-33.878,-10.307,-26.521,-50.726
12.468,90.052,77.585,-51.26,-32.558,83.815,-30.061,-36.962,-29.026,-20.098,-14.061,-46.095
-4.1267,81.602,85.729,-38.738,-44.928,83.669,-20.102,-31.227,-25.478,-30.763,-8.5074,-39.453
-10.992,78.534,89.525,-33.771,-50.259,84.024,-15.133,-30.091,-25.656,-36.965,-10.881,-35.124
-5.8973,81.631,87.529,-37.867,-46.713,84.582,-20.103,-33.803,-29.91,-37.11,-20.544,-35.524
5.1636,89.986,84.822,-47.575,-39.829,88.248,-30.069,-40.854,-35.009,-28.105,-32.857,-40.073
22.183,98.229,76.046,-60.206,-26.932,88.283,-39.581,-47.194,-38.58,-19.65,-38.61,-46.95
30.588,99.849,69.261,-65.218,-19.337,85.043,-43.794,-48.506,-40.414,-16.407,-35.643,-50.173
26.102,97.012,70.91,-61.557,-22.404,83.848,-38.966,-44.08,-37.915,-20.352,-25.321,-50.659
11.168,88.994,77.825,-50.081,-33.329,84.274,-27.943,-37.919,-33.906,-29.098,-13.225,-45.092
-4.9716,78.199,83.17,-36.613,-44.071,80.634,-17.26,-31.051,-30.508,-38.747,-7.2785,-38.747
-14.693,74.525,89.217,-29.916,-51.955,81.92,-13.735,-30.607,-30.665,-44.623,-10.806,-35.159
-10.558,77.569,88.127,-33.506,-49.342,82.781,-19.174,-35.478,-34.857,-43.249,-22.473,-36.146
4.1221,86.962,82.84,-45.542,-39.359,85.057,-28.97,-43.131,-41.02,-34.066,-34.843,-42.046
22.407,94.98,72.573,-58.693,-25.083,84.58,-37.64,-48.474,-45.486,-24.376,-40.491,-47.802
32.102,95.725,63.623,-63.914,-15.761,79.434,-43.573,-48.834,-45.771,-19.957,-35.98,-51.363
28.872,93.06,64.188,-60.966,-17.658,79.435,-38.198,-45.242,-42.876,-22.505,-25.338,-50.846
14.181,85.859,71.679,-50.02,-28.749,78.909,-27.118,-38.137,-38.115,-31.202,-13.133,-45.198
-3.0105,76.587,79.597,-36.788,-41.304,78.052,-18.125,-32.972,-35.507,-41.463,-7.4968,-39.552
-10.48,73.579,84.059,-31.55,-47.269,78.828,-13.225,-30.961,-35.663,-44.387,-9.821,-34.982
-6.0508,76.014,82.064,-34.981,-44.058,79.046,-17.322,-35.414,-39.871,-42.126,-20.229,-36.28
6.9898,82.835,75.845,-44.912,-34.428,80.157,-28.877,-44.078,-45.984,-33.977,-32.968,-41.094
24.27,90.46,66.19,-57.365,-20.96,79.525,-39.688,-50.757,-50.674,-24.435,-38.539,-48.149
32.468,93.029,60.561,-62.748,-14.046,77.165,-44.08,-52.33,-52.349,-19.879,-35.731,-52.401
28.838,89.286,60.448,-59.062,-15.805,75.502,-40.885,-49.457,-49.996,-22.643,-24.671,-51.888
14.17,80.889,66.72,-47.529,-26.275,74.051,-29.893,-41.834,-44.952,-30.028,-11.936,-46.043
-2.9733,71.777,74.75,-34.402,-38.862,73.141,-19.241,-36.4,-41.572,-38.65,-4.1928,-39.67
-10.573,70.066,80.639,-29.747,-45.606,75.437,-13.563,-34.514,-41.254,-42.27,-5.4522,-34.133
-5.3498,74.372,79.722,-34.511,-42.536,76.975,-18.628,-38.351,-44.079,-37.47,-13.689,-33.281
8.9117,82.303,73.391,-45.607,-32.24,78.724,-30.237,-46.053,-49.846,-28.077,-25.893,-38.188
24.906,90.975,66.069,-57.941,-20.581,78.403,-40.505,-50.758,-53.673,-16.959,-31.483,-45.01
30.228,91.367,61.139,-60.798,-15.455,76.741,-45.2,-54.045,-55.325,-12.339,-29.203,-49.899
26.312,87.193,60.881,-56.752,-17.284,75.187,-41.811,-51.446,-53.061,-15.726,-18.778,-50.031
14.241,79.949,65.707,-47.095,-25.733,72.861,-29.237,-42.147,-46.945,-23.018,-5.1616,-43.866
-0.63022,72.986,73.616,-36.178,-37.123,73.318,-18.086,-34.766,-42.519,-30.193,0.75483,-36.812
-7.7756,70.253,78.029,-31.239,-42.902,74.113,-14.949,-33.486,-42.263,-34.053,-0.73583,-33.066
-4.9231,71.705,76.628,-33.391,-40.775,74.208,-19.302,-38.558,-45.098,-31.455,-10.653,-34.28
7.8802,79.196,71.316,-43.538,-31.718,75.181,-30.93,-45.245,-50.788,-22.086,-21.88,-39.007
23.124,85.719,62.594,-54.422,-19.735,74.425,-41.493,-51.73,-54.821,-12.094,-27.685,-46.496
34.152,89.85,55.697,-62.001,-10.773,73.905,-44.508,-53.031,-55.474,-6.91,-24.212,-51.059
31.5,89.501,58.001,-60.501,-13.251,74.657,-40.781,-48.491,-51.038,-8.8878,-12.534,-49.647
14.916,79.069,64.154,-46.993,-24.619,72.727,-29.966,-41.025,-45.957,-16.918,-0.1689,-45.092
-1.3562,70.773,72.129,-34.708,-36.743,72.146,-19.258,-34.868,-41.253,-25.52,4.4067,-38.515
-7.3566,69.188,76.545,-30.916,-41.951,72.775,-15.733,-33.462,-40.114,-30.204,2.5811,-33.969
-2.4992,72.046,74.545,-34.773,-38.522,73.338,-21.169,-37.995,-43.773,-26.733,-6.3551,-35.343
10.356,78.838,68.482,-44.597,-29.063,73.635,-31.087,-43.888,-48.364,-16.992,-19.115,-39.949
24.176,85.171,60.995,-54.673,-18.41,73.098,-41.742,-50.169,-52.084,-7.1713,-26.643,-47.574
32.894,89.132,56.237,-61.013,-11.671,72.676,-45.27,-51.594,-51.785,-1.7977,-23.62,-51.927
30.621,85.802,55.181,-58.211,-12.28,70.493,-39.863,-46.365,-48.252,-4.5899,-13.335,-51.403
13.033,76.727,63.694,-44.88,-25.33,71.016,-29.038,-39.105,-42.017,-13.051,-1.2219,-46.266
-2.2752,69.174,71.45,-33.45,-36.862,70.297,-19.376,-34.055,-38.386,-21.241,4.8283,-39.466
-8.7176,68.182,76.899,-29.732,-42.808,72.566,-15.24,-31.521,-36.671,-25.025,3.1901,-34.678
-5.9861,71.128,77.114,-32.571,-41.55,74.078,-20.041,-34.677,-38.966,-22.474,-6.5554,-34.38
7.1207,77.705,70.585,-42.413,-31.732,75.016,-30.965,-41.98,-44.96,-13.055,-18.904,-39.966
25.233,85.793,60.56,-55.513,-17.663,73.042,-40.653,-47.994,-48.383,-3.2683,-25.836,-47.229
33.579,89.047,55.468,-61.313,-10.944,72.789,-44.67,-50.148,-48.918,0.49284,-24.2,-51.267
29.083,85.896,56.813,-57.489,-13.865,72.419,-40.712,-45.429,-45.127,-1.9505,-14.421,-51.644
15.091,79.069,63.978,-47.08,-24.443,72.564,-29.978,-38.866,-39.984,-9.9466,-2.2019,-46.04
0.38435,71.657,71.273,-36.021,-35.444,72.194,-19.319,-31.839,-35.099,-19.643,2.4896,-40.012
-8.8927,65.951,74.843,-28.529,-41.868,70.308,-15.286,-30.488,-34.767,-24.035,0.1179,-37.297
-7.1724,67.278,74.45,-30.053,-40.811,70.865,-19.993,-34.961,-37.505,-21.528,-9.5268,-37.512
7.9523,77.986,70.034,-42.969,-31.041,74.117,-31.031,-40.98,-41.918,-11.14,-21.13,-41.899
26.334,88.7,62.367,-57.517,-18.016,76.517,-40.557,-48.221,-46.571,-2.6339,-28.688,-48.405
34.163,90.096,55.933,-62.13,-10.885,74.123,-44.843,-49.545,-46.731,0.81125,-25.528,-53.506
28.275,84.91,56.636,-56.593,-14.18,71.013,-39.891,-44.433,-43.361,-0.11273,-16.021,-52.86
14.795,78.192,63.397,-46.494,-24.301,71.663,-29.074,-36.962,-36.794,-8.6797,-6.0439,-47.009
-1.7364,69.041,70.777,-33.652,-36.257,70.74,-17.905,-31.089,-32.698,-17.774,-0.42659,-40.887
-10.136,64.259,74.395,-27.062,-42.265,69.125,-13.765,-28.409,-31.674,-21.475,-3.2872,-36.616
-5.4284,68.399,73.828,-31.485,-39.628,71.273,-18.45,-32.425,-34.644,-19.062,-14.375,-37.105
8.1139,77.087,68.974,-42.601,-30.43,72.84,-28.874,-39.959,-40.212,-10.997,-26.873,-42.969
25.331,86.576,61.245,-55.954,-17.957,74.338,-38.47,-44.934,-43.091,-0.20597,-32.63,-49.13
34.94,90.793,55.854,-62.867,-10.457,73.915,-41.5,-47.162,-42.697,3.4775,-29.6,-53.34
28.579,86.512,57.932,-57.546,-14.676,72.056,-37.807,-42.449,-39.97,1.0216,-19.4,-53.575
13.069,78.114,65.045,-45.592,-25.988,72.48,-26.915,-35.003,-34.863,-7.6534,-6.2528,-48.134
-2.8285,70.398,73.226,-33.785,-38.027,71.732,-16.368,-28.981,-30.552,-16.984,-0.40987,-41.733
-10.958,66.401,77.359,-27.721,-44.159,71.958,-12.238,-26.907,-30.225,-21.743,-2.9532,-38.146
-7.2769,69.668,76.945,-31.196,-42.111,73.206,-17.047,-31.534,-33.147,-17.644,-12.466,-39.191
7.1286,78.016,70.888,-42.572,-31.88,75.451,-27.953,-38.931,-37.868,-8.792,-24.997,-44.146
23.773,86.114,62.341,-54.944,-19.284,74.968,-37.699,-43.768,-41.816,0.25311,-31.595,-51.116
32.06,88.376,56.316,-60.218,-12.128,72.229,-41.301,-44.885,-42.445,4.0158,-28.712,-55.42
28.113,86.039,57.926,-57.076,-14.906,72.042,-35.838,-41.307,-38.092,1.4635,-17.645,-54.876
15.849,79.034,63.185,-47.441,-23.668,71.07,-25.031,-33.067,-32.848,-6.2186,-5.086,-49.885
-1.2977,70.324,71.622,-34.513,-36.46,71.001,-14.055,-27.21,-28.607,-15.513,0.56977,-43.93
-11.266,66.486,77.752,-27.61,-44.509,72.099,-9.1537,-26.048,-27.809,-20.11,-2.2941,-39.605
-7.042,69.017,76.059,-30.988,-41.551,72.549,-14.073,-30.446,-29.902,-17.476,-13.342,-40.095
5.1878,75.11,69.922,-40.149,-32.367,73.354,-24.998,-38.052,-35.99,-8.8238,-25.948,-45.203
21.732,83.133,61.401,-52.432,-19.835,73.415,-35.794,-43.828,-39.388,0.27525,-31.343,-52.063
28.177,85.284,57.107,-56.731,-14.465,71.684,-39.174,-44.506,-39.878,3.9674,-27.5,-56.478
25.596,83.735,58.138,-54.666,-16.271,70.821,-34.562,-39.448,-36.208,2.0828,-17.436,-55.803
13.027,78.825,65.798,-45.926,-26.385,73.182,-23.304,-31.882,-29.197,-4.9166,-4.2375,-50.953
-2.7472,70.659,73.406,-33.956,-38.076,71.973,-13.142,-25.149,-25.234,-13.859,1.6007,-43.46
-11.175,67.516,78.691,-28.171,-44.933,73.168,-9.8733,-24.174,-24.172,-19.1,-0.98155,-39.09
-5.7922,70.626,76.418,-32.417,-41.105,73.431,-14.428,-27.681,-27.1,-17.148,-10.401,-39.584
8.2957,78.969,70.673,-43.632,-31.189,75.016,-24.866,-35.098,-32.859,-8.0864,-23.156,-44.785
23.639,86.033,62.394,-54.836,-19.378,74.953,-35.898,-41.834,-36.505,1.4727,-30.484,-52.584
32.108,88.469,56.361,-60.289,-12.126,72.304,-39.065,-42.867,-36.724,4.4546,-28.534,-57.31
28.145,85.381,57.236,-56.763,-14.545,71.356,-34.709,-39.286,-33.962,1.394,-19.7,-57.664
13.233,76.992,63.759,-45.113,-25.263,71.157,-23.835,-31.975,-28.878,-7.0311,-6.0294,-52.777
-3.1476,68.472,71.62,-32.662,-37.384,70.041,-12.542,-26.21,-24.526,-16.795,-0.78607,-46.154
-12.012,63.915,75.927,-25.952,-43.969,69.951,-9.4316,-25.12,-24.265,-22.3,-3.9891,-42.723
-8.8433,66.544,75.388,-28.851,-42.115,70.898,-13.893,-28.754,-27.071,-18.708,-13.468,-43.07
4.8462,75.916,71.069,-40.381,-33.112,74.471,-25.18,-35.147,-32.05,-8.9938,-26.823,-48.16
22.148,84.224,62.077,-53.186,-19.965,73.905,-35.43,-41.896,-36.573,-0.69768,-33.779,-55.206
28.89,85.9,57.01,-57.395,-14.06,71.326,-38.151,-42.422,-36.279,2.8875,-30.11,-58.884
24.126,82.346,58.22,-53.236,-17.047,70.356,-33.507,-38.1,-32.77,1.2465,-19.236,-58.41
8.2485,73.092,64.844,-40.67,-28.298,68.91,-24.102,-31.103,-28.067,-8.7487,-7.2144,-54.076
-6.3482,66.099,72.447,-29.875,-39.398,69.329,-12.708,-23.705,-23.118,-17.591,-0.022136,-46.421
-12.678,64.895,77.573,-26.108,-45.126,71.169,-7.4507,-22.604,-22.612,-22.103,-2.2744,-42.051
-9.4573,66.718,76.176,-28.631,-42.816,71.536,-13.946,-26.812,-26.886,-19.42,-13.307,-43.256
5.2716,75.1,69.828,-40.186,-32.278,73.115,-25.009,-34.88,-32.169,-10.998,-26.922,-48.06
20.107,81.605,61.498,-50.856,-20.696,71.957,-35.778,-42.124,-37.71,-2.5897,-34.939,-55.377
27.188,84.179,56.991,-55.683,-14.901,71.184,-39.235,-44.091,-39.02,0.35857,-32.798,-60.597
25.744,84.054,58.31,-54.899,-16.283,71.02,-33.904,-38.897,-34.497,-1.2687,-21.584,-59.157
13.048,76.876,63.828,-44.962,-25.39,71.235,-22.935,-30.718,-27.921,-9.611,-10.006,-52.911
-4.422,67.35,71.772,-31.464,-38.097,69.516,-12.343,-25.469,-24.621,-20.153,-4.438,-46.945
-13.837,63.422,77.259,-24.793,-45.548,70.361,-8.2577,-23.445,-24.161,-24.509,-7.3378,-42.572
-8.2325,66.66,74.893,-29.214,-41.563,70.779,-13.021,-27.419,-27.743,-22.083,-17.719,-43.151
4.2208,74.135,69.914,-39.178,-32.847,71.982,-24.019,-34.986,-34.067,-13.13,-28.884,-48.094
20.85,80.693,59.842,-50.771,-19.496,70.498,-34.916,-41.239,-38.596,-3.4703,-36.124,-55.385
28.871,82.702,53.831,-55.787,-12.48,69.47,-39.861,-44.261,-40.458,-0.65434,-35.025,-60.524
25.985,81.891,55.906,-53.938,-14.961,69.147,-34.949,-39.395,-37.288,-2.8901,-22.826,-59.854
12.003,75.948,63.944,-43.975,-25.97,69.866,-23.975,-32.034,-31.796,-10.94,-10.033,-53.962
-3.6717,68.578,72.25,-32.453,-37.961,70.48,-14.452,-26.083,-27.524,-20.854,-3.2575,-46.752
-12.566,63.814,76.381,-25.624,-44.473,70.018,-10.11,-25.628,-27.618,-26.221,-6.8887,-43.11
-8.6577,66.687,75.345,-29.015,-42.001,71.128,-15.787,-29.855,-31.945,-23.356,-17.767,-44.25
6.2314,73.998,67.767,-40.115,-30.768,70.696,-26.195,-37.787,-37.018,-15.06,-29.787,-49.881
22.787,82.516,59.729,-52.652,-18.471,71.587,-36.839,-45.31,-41.77,-6.3741,-36.823,-57.584
30.66,84.61,53.949,-57.635,-11.645,69.762,-41.915,-46.427,-42.842,-2.362,-33.087,-61.952
25.345,80.026,54.681,-52.685,-14.668,67.934,-36.916,-42.162,-39.907,-5.7203,-22.244,-60.828
11.031,73.981,62.95,-42.506,-25.959,69.544,-25.112,-34.133,-34.11,-13.942,-9.3811,-54.05
-5.0026,66.7,71.703,-30.849,-38.353,69.06,-14.161,-26.938,-30.509,-23.885,-1.8417,-46.806
-14.24,63.437,77.677,-24.598,-45.958,70.651,-10.832,-26.755,-30.274,-29.173,-4.879,-42.647
-9.4037,66.769,76.173,-28.683,-42.788,71.391,-16.024,-30.709,-33.074,-26.445,-15.727,-43.108
4.1352,72.991,68.856,-38.563,-32.36,71.049,-28.043,-38.187,-38.857,-17.06,-27.896,-48.159
19.603,79.043,59.439,-49.323,-19.918,70.266,-39.74,-45.966,-44.034,-8.6756,-35.964,-56.528
26.584,81.537,54.953,-54.061,-14.184,69.222,-43.691,-48.636,-46.035,-5.1132,-33.819,-60.998
26.001,82.972,56.971,-54.486,-15.485,71.011,-39.064,-43.965,-42.151,-6.789,-21.984,-59.766
15.122,78.938,63.816,-47.03,-24.347,72.271,-26.984,-35.678,-36.049,-15.025,-8.0574,-54.021
-3.5946,68.16,71.754,-32.283,-37.674,69.932,-16.32,-29.265,-32.536,-24.63,-2.5272,-47.948
-12.701,64.861,77.562,-26.08,-45.132,71.221,-12.306,-28.107,-32.263,-28.712,-4.8569,-43.171
-7.3568,69.536,76.893,-31.09,-42.125,73.208,-16.93,-31.716,-35.074,-24.611,-14.565,-42.923
5.3488,76.144,70.796,-40.747,-32.723,74.319,-29.037,-39.921,-40.868,-15.093,-26.861,-49.165
21.809,83.198,61.39,-52.504,-19.791,73.437,-39.603,-47.107,-46.007,-6.39,-33.942,-56.073
31.859,86.672,54.813,-59.266,-11.477,71.232,-43.866,-49.067,-48.083,-2.3255,-31.705,-60.455
26.797,83.201,56.405,-54.999,-14.804,69.689,-38.261,-44.509,-44.066,-5.7772,-21.327,-59.854
11.951,76.104,64.153,-44.028,-26.101,70.192,-26.903,-36.952,-39.046,-13.843,-8.2828,-54.051
-2.8639,68.36,71.224,-32.748,-37.044,69.741,-17.437,-31.169,-35.265,-24.085,-1.1374,-47.796
-12.32,64.744,77.064,-26.212,-44.692,70.954,-13.222,-30.236,-34.171,-28.218,-4.9701,-43.822
-7.345,69.601,76.946,-31.128,-42.145,73.207,-18.009,-32.997,-37.092,-24.143,-15.695,-42.673
5.2644,76.159,70.895,-40.712,-32.815,74.468,-29.144,-40.82,-42.916,-15.253,-27.869,-47.793
21.98,84.315,62.335,-53.148,-20.177,74.299,-40.731,-48.197,-47.73,-5.0941,-34.7,-54.352
31.241,87.556,56.315,-59.398,-12.537,73.032,-44.631,-49.937,-49.284,-1.9825,-31.586,-59.978
26.423,84.349,57.927,-55.386,-15.752,71.421,-40.733,-46.246,-47.092,-5.7186,-21.368,-59.99
11.238,76.859,65.621,-44.048,-27.191,71.967,-29.968,-39.032,-40.923,-14.043,-9.152,-53.917
-2.8141,70.078,72.892,-33.632,-37.853,71.506,-19.322,-32.979,-36.415,-23.417,-2.0533,-46.616
-13.093,67.116,80.21,-27.012,-46.651,73.678,-15.286,-30.9,-34.536,-26.495,-4.2955,-41.5
-10.456,69.444,79.9,-29.494,-45.178,74.613,-19.984,-35.55,-37.767,-23.368,-14.709,-42.165
5.0789,77.324,72.245,-41.201,-33.583,75.759,-31.891,-42.932,-43.87,-14.973,-27.589,-47.924
21.792,86.198,64.406,-53.995,-21.307,76.054,-41.651,-49.132,-47.807,-5.3164,-33.882,-54.19
30.023,89.797,59.774,-59.91,-14.876,74.668,-45.729,-50.603,-48.408,-1.4204,-29.678,-57.974
26.186,84.881,58.695,-55.533,-16.255,71.839,-41.057,-45.393,-44.72,-4.6333,-17.434,-56.681
12.067,76.711,64.645,-44.389,-26.289,70.658,-29.787,-37.975,-40.099,-13.931,-5.1895,-52.075
-4.0451,68.77,72.815,-32.362,-38.43,70.788,-19.68,-32.216,-36.469,-23.63,0.64069,-45.511
-13.146,65.414,78.561,-26.134,-45.854,72.017,-16.312,-31.067,-36.327,-28.049,-2.3426,-40.991
-9.1078,68.725,77.833,-29.809,-43.47,73.211,-21.035,-35.399,-39,-25.512,-13.303,-42.3
4.8863,76.897,72.011,-40.892,-33.562,75.434,-32.759,-43.979,-45.793,-16.776,-25.967,-47.833
22.423,86.949,64.526,-54.686,-21.052,76.487,-43.054,-49.791,-49.522,-6.439,-31.457,-54.282
32.164,91.793,59.629,-61.978,-13.732,75.593,-47.318,-50.896,-49.711,-1.867,-29.203,-57.839
28.182,87.631,59.449,-57.906,-15.634,73.593,-41.921,-47.268,-46.99,-5.1622,-18.796,-57.424
13.094,77.886,64.792,-45.49,-25.849,72.116,-30.824,-39.987,-41.834,-14.396,-5.9452,-52.33
-4.0999,67.465,71.565,-31.683,-37.833,69.517,-20.729,-34.198,-37.593,-24.208,-0.75023,-46.527
-13.184,64.979,78.163,-25.897,-45.674,71.591,-16.865,-33.133,-37.144,-28.109,-4.3748,-41.639
-8.4403,69.402,77.842,-30.481,-43.141,73.577,-20.867,-36.745,-40.827,-24.796,-15.313,-41.422
6.8276,78.093,71.265,-42.46,-32.219,75.562,-32.879,-43.943,-46.009,-14.956,-27.144,-46.069
23.181,86.074,62.893,-54.628,-19.856,74.321,-42.931,-50.029,-49.661,-6.558,-33.525,-53.181
31.641,88.415,56.774,-60.028,-12.567,73.197,-47.469,-52.109,-50.938,-1.761,-30.779,-57.318
26.463,85.454,58.991,-55.959,-16.264,72.623,-41.7,-47.485,-47.803,-5.2866,-19.57,-57.578
10.179,76.095,65.916,-43.137,-27.868,70.862,-32.036,-40.78,-43.059,-14.967,-7.9613,-52.963
-3.2411,70.11,73.351,-33.434,-38.296,71.81,-20.931,-33.996,-38.113,-23.512,0.04717,-45.54
-11.98,67.023,79.003,-27.521,-45.492,72.963,-16.683,-31.9,-37.654,-28.136,-2.7934,-40.618
-8.8186,70.142,78.961,-30.662,-43.89,74.583,-22.142,-36.529,-41.28,-25.434,-13.815,-40.444
7.1398,80.058,72.918,-43.599,-32.889,77.268,-33.862,-44.02,-45.864,-16.061,-25.744,-45.868
22.518,86.91,64.392,-54.714,-20.937,75.663,-44.822,-51.174,-50.935,-6.3015,-32.994,-53.541
29.736,89.902,60.166,-59.819,-15.215,75.027,-48.233,-52.576,-51.314,-2.4097,-30.729,-58.045
27.714,88.2,60.486,-57.957,-16.386,74.348,-42.878,-47.416,-47.809,-5.6694,-19.674,-56.644
13.13,79.919,66.789,-46.525,-26.829,74.151,-32.045,-39.953,-42.958,-14.861,-7.0276,-52.109
-5.0966,69.207,74.304,-32.055,-39.7,71.76,-22.343,-34.242,-38.472,-24.771,-1.5468,-45.47
-12.407,65.829,78.236,-26.711,-45.322,72.028,-18.332,-33.033,-38.31,-28.506,-3.7896,-41.074
-7.6072,71.059,78.667,-31.726,-43.137,74.866,-22.343,-37.458,-41.047,-25.476,-14.239,-41.624
8.1733,81.991,73.818,-45.082,-32.822,77.945,-32.041,-44.227,-46.007,-15.842,-26.969,-45.866
23.272,88.701,65.429,-55.986,-21.079,78.218,-42.903,-50.984,-49.561,-5.6612,-32.523,-53.607
31.635,90.49,58.854,-61.062,-13.61,75.148,-47.923,-53.135,-51.471,-2.0255,-29.757,-57.945
26.92,86.669,59.749,-56.795,-16.414,73.117,-42.299,-48.475,-48.294,-4.5104,-18.618,-56.802
10.993,77.992,66.998,-44.493,-28.002,73.327,-29.929,-40.918,-41.969,-13.906,-6.0589,-50.987
-3.7465,70.642,74.389,-33.448,-39.068,72.517,-20.7,-34.034,-38.588,-23.945,0.73084,-45.107
-11.608,67.931,79.539,-28.162,-45.574,73.705,-17.308,-33.694,-38.222,-28.724,-2.8169,-41.824
-7.02,71.821,78.841,-32.4,-42.93,75.398,-22.03,-37.762,-41.119,-25.275,-14.441,-41.357
6.0593,79.816,73.757,-42.938,-33.849,76.652,-32.931,-45.101,-46.778,-16.15,-26.93,-46.857
22.932,87.216,64.284,-55.074,-20.676,76.144,-42.874,-51.743,-50.797,-6.2358,-33.668,-53.404
30.514,88.883,58.369,-59.699,-13.928,74.236,-47.889,-53.369,-51.811,-2.47,-30.63,-58.509
26.052,85.907,59.855,-55.979,-16.901,72.708,-42.939,-50.387,-48.961,-5.6022,-19.764,-57.864
13.018,79.963,66.945,-46.49,-26.964,74.351,-31.929,-42.12,-42.978,-14.955,-6.8499,-52.799
-3.0438,71.373,74.417,-34.165,-38.73,72.828,-21.339,-35.863,-38.524,-24.609,-0.75562,-45.905
-12.141,67.388,79.528,-27.624,-45.835,73.513,-17.274,-34.413,-38.195,-29.074,-4.2806,-41.59
-8.1121,70.725,78.837,-31.306,-43.475,74.727,-21.998,-39.629,-41.774,-26.481,-16.04,-42.152
5.9078,78.073,72.165,-41.99,-33.129,75.186,-33.072,-47,-47.118,-17.021,-29.029,-47.077
23.269,87.655,64.386,-55.462,-20.559,75.904,-43.695,-54.023,-51.706,-7.3575,-35.725,-54.445
31.532,91.642,60.109,-61.587,-14.288,76.369,-47.369,-53.978,-52.628,-3.0453,-31.835,-59.133
27.157,88.311,61.155,-57.734,-16.999,75.869,-41.158,-48.318,-47.263,-4.7815,-18.709,-57.011
12.088,80.005,67.917,-46.046,-27.915,74.02,-29.934,-41.893,-41.993,-13.891,-6.8617,-51
-3.7049,71.62,75.325,-33.958,-39.515,73.447,-20.453,-36.234,-38.305,-22.45,-0.65614,-44.875
-12.527,68.546,81.074,-28.01,-46.8,74.85,-16.137,-35.069,-37.098,-27.623,-4.4561,-40.641
-9.2468,71.052,80.299,-30.902,-44.773,75.601,-21.726,-39.388,-40.748,-25.527,-15.21,-41.061
3.2284,77.792,74.563,-40.51,-35.667,77.161,-33.161,-47.206,-47.112,-16.071,-29.023,-47.086
19.983,85.405,65.423,-52.694,-22.72,76.161,-43.611,-53.743,-51.344,-6.1842,-36.671,-54.134
26.927,86.172,59.246,-56.55,-16.159,72.591,-47.763,-55.002,-52.325,-2.9831,-33.646,-58.399
23.243,84.246,61.003,-53.744,-18.88,72.681,-43.026,-50.554,-49.385,-6.0936,-22.744,-57.92
13.088,79.971,66.884,-46.53,-26.898,74.197,-30.993,-42.064,-42.847,-13.852,-9.034,-51.915
-3.1655,71.629,74.795,-34.232,-38.98,73.226,-20.333,-35.961,-38.553,-23.749,-2.5836,-44.811
-11.721,68.425,80.145,-28.352,-45.933,74.285,-16.267,-33.936,-38.267,-27.613,-6.5689,-40.747
-6.2697,72.396,78.666,-33.063,-42.468,75.512,-21.011,-38.485,-41.05,-23.713,-16.498,-40.353
7.0336,80.055,73.021,-43.544,-32.994,77.426,-32.049,-46.055,-46.901,-13.918,-29.049,-45.937
24.265,87.311,63.046,-55.788,-19.391,76.224,-42.736,-51.754,-50.449,-4.4791,-35.327,-52.09
32.168,90.168,58,-61.168,-12.916,75.051,-46.28,-52.967,-50.832,0.1814,-31.603,-56.472
26.85,86.114,59.264,-56.482,-16.207,73.728,-40.849,-48.608,-47.249,-3.2252,-20.698,-55.785
14.108,79.048,64.94,-46.578,-25.416,72.095,-30.057,-40.793,-41.828,-12.284,-7.2097,-51.043
-3.3003,70.465,73.766,-33.583,-38.533,72.074,-20.343,-35.566,-38.729,-22.53,-1.2976,-44.496
-11.507,68.112,79.619,-28.303,-45.563,73.9,-16.293,-35.119,-37.681,-27.128,-4.8065,-40.075
-7.1647,71.058,78.223,-31.947,-42.694,74.6,-20.952,-39.405,-40.608,-24.434,-16.439,-40.594
7.1546,77.987,70.832,-42.571,-31.839,75.268,-32.152,-47.093,-46.318,-15.066,-28.949,-45.734
24.728,87.544,62.817,-56.136,-19.045,75.07,-42.54,-52.747,-50.225,-5.2847,-35.629,-52.466
31.337,90.003,58.666,-60.67,-13.664,74.823,-46.933,-53.923,-51.424,-1.4388,-32.695,-57.491
27.202,86.261,59.059,-56.731,-15.929,73.802,-41.171,-50.255,-48.273,-4.6189,-21.651,-56.834
12.165,78.045,65.88,-45.105,-26.857,72.013,-30.858,-42.944,-42.856,-13.945,-9.1061,-51.943
-4.2121,69.423,73.635,-32.605,-38.923,71.518,-20.027,-36.065,-38.262,-23.611,-3.2588,-45.698
-14.568,65.225,79.793,-25.329,-47.181,72.524,-15.632,-35.595,-37.489,-28.076,-4.7011,-40.409
-7.334,70.088,77.422,-31.377,-42.378,73.727,-21.159,-40.489,-42.034,-25.467,-15.252,-41.307
8.4421,79.207,70.765,-43.825,-31.161,75.036,-32.877,-48.957,-47.726,-16.89,-28.846,-45.831
24.447,88.237,63.79,-56.342,-19.672,75.91,-43.752,-54.771,-51.904,-7.4423,-34.556,-52.762
31.615,89.527,57.912,-60.571,-13.149,74.202,-47.675,-55.987,-52.338,-2.9213,-31.758,-58.148
25.788,84.514,58.726,-55.151,-16.469,72.77,-43.083,-51.55,-48.792,-5.5003,-20.586,-56.65
9.0762,75.892,66.816,-42.484,-28.87,72.194,-31.767,-44.776,-43.14,-15.072,-8.1398,-51.971
-4.0763,69.27,73.346,-32.597,-38.711,71.314,-20.218,-39.206,-38.168,-25.655,-0.97879,-44.575
-11.258,67.639,78.897,-28.191,-45.078,73.258,-14.571,-36.016,-37.169,-29.988,-3.7336,-39.474
-9.0782,70.667,79.745,-30.794,-44.412,75.212,-19.629,-38.534,-40.715,-28.169,-15.434,-40.805
4.1665,77.128,72.961,-40.647,-34.397,75.084,-32.02,-46.166,-47.109,-19.148,-29.77,-46.297
22.209,85.58,63.371,-53.895,-20.581,75.625,-41.56,-52.784,-51.409,-9.2304,-39.199,-52.999
30.593,89.617,59.025,-60.105,-14.216,74.802,-45.815,-53.915,-51.881,-5.5214,-36.189,-57.565
26.082,86.969,60.888,-56.525,-17.403,73.827,-40.954,-50.235,-48.183,-7.954,-24.598,-56.132
11.993,79.082,67.088,-45.538,-27.547,73.13,-29.142,-43.049,-42.942,-16.812,-11.17,-50.817
-4.9052,69.524,74.429,-32.31,-39.667,71.958,-19.272,-36.948,-39.379,-27.984,-4.1513,-44.96
-12.606,68.795,81.402,-28.094,-47.004,75.098,-15.711,-34.949,-38,-30.903,-5.7705,-40.589
-7.3304,72.053,79.383,-32.361,-43.357,75.73,-21.2,-39.466,-41.899,-28.024,-16.195,-41.09
6.0348,79.012,72.978,-42.524,-33.471,76.01,-31.882,-47.124,-47.015,-19.199,-29.168,-47.114
22.071,87.148,65.077,-54.609,-21.503,77.314,-42.963,-53.865,-51.818,-10.482,-36.455,-55.286
30.763,89.069,58.305,-59.916,-13.771,74.057,-45.618,-54.507,-52.462,-5.4442,-32.072,-58.887
25.285,84.496,59.211,-54.89,-16.963,72.487,-40.526,-49.417,-48.062,-7.421,-20.651,-57.798
11.114,76.966,65.852,-44.04,-27.369,72.459,-29.23,-42,-42.096,-16.166,-7.0899,-52.845
-3.7686,69.62,73.389,-32.926,-38.579,71.377,-19.484,-36.115,-38.5,-26.882,-0.50683,-45.849
-12.009,66.961,78.971,-27.476,-45.49,73.06,-16.541,-35.593,-38.295,-31.833,-4.9577,-41.691
-8.2201,70.784,79.004,-31.282,-43.612,74.798,-20.185,-39.916,-41.045,-27.559,-16.355,-41.441
6.8915,78.055,71.164,-42.473,-32.136,75.584,-31.062,-45.996,-46.081,-18.904,-28.972,-46.828
24.059,86.28,62.221,-55.169,-19.081,75.041,-41.653,-53.226,-50.5,-9.4357,-34.294,-54.631
31.04,89.701,58.661,-60.37,-13.811,73.953,-45.739,-54.49,-50.715,-4.9116,-30.605,-58.864
25.346,85.53,60.185,-55.438,-17.42,73.654,-41.032,-50.092,-47.996,-7.5434,-19.726,-58.503
10.967,78.021,67.054,-44.494,-28.043,73.499,-29.848,-43.077,-42.809,-16.094,-6.9042,-53.048
-3.3602,71.732,75.092,-34.186,-39.226,73.34,-19.427,-35.763,-38.66,-25.551,0.71794,-45.768
-11.419,68.535,79.954,-28.558,-45.687,74.304,-15.139,-34.48,-37.715,-30.106,-2.7906,-41.7
-8.3536,70.982,79.336,-31.314,-43.845,75.088,-20.74,-39.579,-40.592,-27.456,-14.478,-42.028
6.0226,77.996,71.974,-42.01,-32.976,75.127,-32.126,-47.043,-47.163,-18.085,-27.709,-48.097
21.974,86.335,64.361,-54.155,-21.193,76.324,-42.695,-53.958,-51.386,-9.4628,-35.067,-55.143
31.24,89.628,58.388,-60.434,-13.574,75.096,-46.306,-54.357,-51.88,-4.8808,-32.268,-59.341
26.444,85.647,59.203,-56.046,-16.38,72.725,-40.839,-50.19,-48.217,-7.5842,-20.532,-59.577
11.938,77.742,65.805,-44.84,-26.934,71.672,-30.014,-43.002,-42.812,-16.025,-7.2234,-54.103
-3.7333,69.793,73.526,-33.03,-38.63,71.727,-19.21,-37.219,-38.555,-25.81,-0.19505,-46.436
-12.09,66.321,78.411,-27.116,-45.25,72.306,-15.778,-36.05,-38.258,-31.252,-3.8721,-42.034
-7.5384,70.451,77.989,-31.456,-42.764,74.288,-21.12,-40.449,-41.073,-28.345,-15.394,-43.273
7.1416,78.88,71.739,-43.011,-32.299,76.005,-31.152,-47.2,-46.046,-19.183,-27.999,-48.043
22.633,86.416,63.782,-54.525,-20.575,75.406,-41.62,-52.695,-50.691,-8.9758,-34.45,-55.404
31.259,89.066,57.807,-60.163,-13.274,74.511,-45.776,-53.976,-52,-4.3585,-30.092,-60.533
25.743,85.233,59.491,-55.488,-16.874,73.362,-40.974,-50.179,-48.106,-7.6431,-18.596,-59.812
10.086,77.901,67.815,-43.993,-28.865,72.961,-29.94,-43.118,-42.975,-16.962,-5.2629,-54.06
-4.7767,71.096,75.873,-33.16,-40.325,73.474,-19.257,-36.831,-38.137,-26.411,0.85958,-46.434
-12.91,67.757,80.668,-27.423,-46.789,74.177,-15.742,-35.441,-37.669,-29.83,-1.1247,-42.063
-9.9909,68.558,78.548,-29.283,-44.27,73.637,-21.152,-40.609,-41.223,-28.296,-13.072,-43.21
5.0615,78.128,73.067,-41.595,-34.003,76.231,-31.916,-47.975,-46.789,-18.158,-26.027,-48.966
25.278,88.326,63.048,-56.802,-18.885,76.138,-41.668,-53.834,-50.551,-8.304,-31.416,-55.028
31.531,89.469,57.938,-60.5,-13.203,74.196,-45.704,-54.848,-50.689,-4.3406,-29.245,-59.892
25.158,85.096,59.938,-55.127,-17.39,73.089,-41.086,-51.336,-48.01,-8.3547,-18.746,-60.035
11.227,78.109,66.882,-44.668,-27.827,73.582,-28.948,-43.041,-41.967,-17.134,-5.1838,-53.868
-4.1959,70.446,74.642,-33.125,-39.419,72.392,-19.74,-37.232,-37.476,-26.541,0.66983,-46.802
-14.796,65.97,80.766,-25.587,-47.781,73.477,-16.194,-36.024,-37.613,-31.101,-2.7591,-43.09
-10.565,68.452,79.017,-28.943,-44.791,73.63,-21.784,-40.491,-42.016,-28.489,-14.523,-44.255
6.734,78.916,72.182,-42.825,-32.724,76.528,-32.097,-47.12,-45.964,-18.131,-25.912,-48.208
24.155,86.953,62.798,-55.554,-19.321,75.669,-41.832,-52.969,-49.953,-8.3077,-31.75,-55.255
30.865,87.789,56.924,-59.327,-13.03,72.119,-46.873,-55.123,-52.052,-4.3686,-30.307,-61.046
26.723,84.926,58.203,-55.824,-15.74,72.381,-42.015,-50.511,-48.19,-7.7543,-19.747,-60.93
13.989,79.836,65.847,-46.912,-25.929,72.97,-29.914,-42.091,-41.886,-15.853,-6.1007,-54.182
-2.8792,71.416,74.296,-34.269,-38.587,72.834,-19.682,-37.326,-37.796,-26.085,0.68824,-47.534
-11.221,67.376,78.597,-28.078,-44.909,72.966,-15.922,-35.627,-38.064,-30.208,-2.4491,-42.64
-9.8197,70.712,80.531,-30.446,-45.176,75.683,-19.771,-38.625,-39.066,-26.154,-12.557,-42.4
3.9549,78.11,74.155,-41.032,-35.1,76.001,-32.936,-46.871,-45.931,-18.925,-26.683,-47.963
21.221,87.575,66.354,-54.398,-22.566,77.359,-43.758,-52.943,-50.485,-9.4143,-33.8,-55.207
31.867,91.829,59.961,-61.848,-14.047,76.501,-47.257,-53.355,-50.821,-4.8883,-30.18,-59.343
26.857,86.902,60.045,-56.879,-16.594,73.309,-41.898,-49.211,-47.255,-8.1511,-18.521,-58.966
10.121,77.84,67.72,-43.98,-28.799,72.864,-30.128,-41.152,-41.786,-17.4,-6.21,-53.711
-4.7342,71.043,75.777,-33.154,-40.256,73.365,-20.358,-36.329,-37.572,-27.215,-0.10997,-47.02
-13.025,68.53,81.555,-27.753,-47.29,75.062,-16.236,-34.552,-37.245,-31.07,-2.2276,-42.116
-9.2249,71.671,80.896,-31.223,-45.06,76.286,-21.054,-38.33,-40.085,-28.421,-13.342,-41.97
5.029,79.859,74.83,-42.444,-34.9,78.105,-32.011,-46.094,-45.034,-19.154,-26.81,-48.097
20.71,87.378,66.668,-54.044,-22.979,77.25,-44.161,-51.942,-49.707,-8.9699,-32.695,-55.316
29.162,90.178,61.016,-59.67,-15.927,76.809,-47.879,-54.167,-50.978,-4.4297,-31.467,-60.658
24.403,85.491,61.088,-54.947,-18.342,73.524,-41.683,-49.443,-47.139,-6.9586,-19.912,-59.09
10.184,77.823,67.639,-44.004,-28.727,72.674,-31.109,-42.014,-41.925,-15.845,-7.1285,-53.812
-3.9359,69.856,73.792,-32.96,-38.864,71.854,-20.125,-35.959,-37.24,-25.522,-1.0637,-46.649
-13.231,68.042,81.274,-27.406,-47.252,74.638,-16.897,-33.947,-36.193,-28.412,-3.7235,-41.476
-8.4879,72.352,80.84,-31.932,-44.664,76.608,-21.396,-38.466,-39.067,-25.465,-14.866,-42.193
7.0516,81.158,74.107,-44.105,-33.527,78.466,-32.742,-46.085,-44.114,-15.996,-27.514,-47.075
23.675,88.946,65.271,-56.31,-20.798,78.264,-44.118,-51.706,-48.411,-6.4142,-33.895,-54.39
30.375,91.929,61.555,-61.152,-15.59,77.219,-48.332,-53.042,-48.902,-1.9241,-30.004,-59.535
26.174,89.55,63.376,-57.862,-18.601,76.365,-42.823,-48.488,-45.137,-4.526,-19.355,-58.824
10.381,81.65,71.269,-46.016,-30.444,76.503,-32.899,-41.814,-39.197,-13.132,-6.2029,-53.031
-5.078,74.223,79.301,-34.572,-42.189,76.741,-22.132,-34.889,-34.921,-22.372,0.70494,-45.489
-14.162,73.065,87.227,-29.451,-50.694,80.151,-17.044,-33.397,-33.478,-25.513,-2.3771,-40.973
-9.5069,77.402,86.909,-33.948,-48.208,82.167,-22.785,-38.639,-37.4,-22.382,-13.278,-42.356
5.1188,86.836,81.718,-45.978,-38.299,85.032,-34.091,-46.776,-41.702,-13.077,-26.035,-46.916
20.657,94.336,73.679,-57.496,-26.511,84.237,-44.722,-53.159,-45.953,-3.2946,-32.58,-54.628
29.204,97.522,68.318,-63.363,-19.557,84.129,-48.275,-54.926,-46.274,0.59191,-29.718,-58.841
24.362,94.957,70.594,-59.66,-23.116,83.013,-42.873,-51.305,-42.877,-2.6797,-18.653,-58.558
10.198,88.165,77.967,-49.181,-33.885,83.004,-31.193,-43.038,-36.149,-10.992,-6.02,-52.906
-5.2939,81.813,87.106,-38.259,-46.2,84.498,-22.577,-37.384,-31.415,-20.687,0.65945,-44.829
-15.261,80.439,95.701,-32.589,-55.481,88.035,-19.768,-37.643,-31.323,-24.623,-2.4231,-40.271
-10.55,86.19,96.739,-37.82,-53.645,91.501,-25.774,-42.537,-34.047,-20.754,-12.599,-39.273
6.0767,96.048,89.972,-51.063,-41.948,93.007,-37.978,-49.168,-39.015,-9.9416,-24.929,-44.075
23.675,103.96,80.289,-63.82,-28.307,93.345,-48.913,-56.066,-43.904,-0.86387,-31.632,-51.426
30.479,104.46,73.986,-67.471,-21.753,89.576,-53.887,-57.997,-46.479,1.3873,-28.693,-56.415
25.405,99.485,74.08,-62.445,-24.337,87.443,-48.924,-54.246,-43.93,-1.5795,-17.655,-56.584
11.104,91.058,79.954,-51.081,-34.425,86.516,-37.169,-46.916,-38.937,-10.052,-4.2383,-51.013
-4.0148,83.553,87.568,-39.769,-45.791,85.493,-27.263,-40.152,-34.411,-19.65,1.7253,-43.785
-12.846,78.831,91.676,-32.992,-52.261,85.253,-23.456,-39.151,-34.761,-23.618,-1.8256,-39.694
-6.616,81.706,88.322,-37.545,-47.469,85.076,-26.607,-42.75,-38.199,-20.325,-13.41,-40.022
7.3352,88.026,80.691,-47.681,-36.678,85.007,-36.847,-49.929,-43.804,-11.95,-26.037,-46.119
24.854,94.04,69.186,-59.447,-22.166,82.053,-47.874,-55.933,-48.929,-2.5483,-33.685,-53.102
32.618,96.026,63.408,-64.322,-15.395,80.221,-51.125,-56.36,-49.344,0.39505,-30.638,-57.437
27.369,92.217,64.848,-59.793,-18.74,79.09,-46.6,-52.208,-45.749,-1.9163,-19.739,-56.865
13.826,85.769,71.943,-49.797,-29.059,79.163,-36.067,-44.942,-41.109,-10.824,-6.058,-51.065
-3.1391,77.68,80.819,-37.271,-41.979,79.066,-25.176,-39.473,-37.403,-22.117,0.47782,-44.625
-13.913,71.993,85.905,-29.04,-49.909,79.109,-21.807,-39.196,-37.747,-26.548,-3.962,-39.495
-8.8215,72.652,81.473,-31.915,-45.147,76.879,-27.087,-43.33,-41.781,-24.037,-15.327,-40.173
7.0601,80.135,73.075,-43.598,-33.007,77.711,-37.992,-51.199,-48.121,-16.019,-28.924,-45.914
24.199,88.406,64.206,-56.302,-20.003,76.867,-47.538,-56.446,-52.195,-5.0598,-35.457,-52.205
34.793,93.289,58.496,-64.041,-11.852,76.391,-52.197,-56.835,-51.667,0.14897,-31.107,-55.952
30.585,89.696,59.112,-60.141,-14.263,74.853,-48.766,-53.286,-48.944,-2.5715,-19.557,-54.713
14.931,80.832,65.901,-47.881,-25.485,74,-38.926,-45.986,-43.216,-11.912,-7.1903,-49.986
-0.34872,73.026,73.375,-36.339,-36.862,73.285,-29.412,-40.185,-40.319,-21.737,-0.99957,-42.33
-6.259,72.717,78.976,-33.229,-42.618,75.811,-25.253,-39.166,-39.073,-25.502,-1.511,-36.34
-2.2554,76.215,78.47,-36.98,-40.363,77.332,-30.001,-42.69,-42.793,-23.045,-13,-37.868
12.111,82.635,70.523,-47.373,-29.206,76.682,-41.073,-50.053,-49.829,-14.201,-26.113,-44.094
27.457,88.065,60.608,-57.761,-16.575,75.337,-50.322,-55.677,-53.634,-4.3088,-32.621,-51.281
35.008,87.892,52.884,-61.45,-8.938,71.462,-53.707,-57.435,-55.423,-2.5241,-31.816,-57.022
30.579,83.047,52.468,-56.813,-10.945,68.065,-48.461,-53.775,-52.347,-6.8764,-21.858,-56.942
13.284,75.153,61.869,-44.219,-24.293,69.207,-34.8,-44.784,-45.069,-14.847,-8.0693,-51.879
-4.4672,65.115,69.582,-30.324,-37.025,67.417,-22.132,-38.323,-41.422,-25.004,-2.6312,-47.254
-14.113,61.996,76.11,-23.942,-45.112,68.993,-16.672,-36.628,-39.561,-29.696,-6.8569,-43.694
-10.249,65.723,75.972,-27.737,-43.111,70.916,-20.945,-39.62,-42.715,-26.276,-18.454,-44.037
4.1974,73.142,68.945,-38.67,-32.374,70.939,-32.017,-47.034,-48.132,-17.196,-30.941,-50.953
20.296,81.004,60.708,-50.65,-20.206,71.163,-41.617,-52.802,-51.33,-6.9921,-38.779,-58.255
26.735,83.565,56.83,-55.15,-15.047,71.272,-45.434,-53.563,-51.922,-2.3136,-32.949,-61.922
23.377,79.653,56.276,-51.515,-16.449,68.965,-39.074,-48.341,-48.156,-5.7286,-21.133,-60.749
8.0531,70.074,62.02,-39.063,-26.984,66.15,-28.089,-41.963,-42.986,-14.787,-9.1646,-55.983
-6.5864,61.478,68.065,-27.446,-37.326,64.761,-19.404,-35.906,-40.669,-25.018,-2.4583,-49.681
-15.914,58.857,74.77,-21.472,-45.342,66.778,-15.261,-34.371,-40.114,-29.679,-6.9666,-44.39
-13.643,59.397,73.04,-22.877,-43.342,66.303,-19.962,-39.691,-43.824,-26.295,-18.382,-45.899
3.2276,67.796,64.569,-35.512,-30.67,66.815,-31.176,-46.843,-49.89,-17.998,-31.762,-51.167
20.624,77.286,56.662,-48.955,-18.019,67.427,-41.34,-53.205,-53.7,-8.3315,-39.036,-58.337
29.733,79.3,49.567,-54.516,-9.9168,64.923,-44.683,-54.506,-54.953,-4.3427,-36.281,-63.574
24.311,76.514,52.203,-50.413,-13.946,64.935,-40.002,-50.073,-51.204,-8.3313,-24.529,-62.784
5.9835,67.02,61.036,-36.502,-27.526,64.307,-28.964,-43.151,-45.793,-18.028,-12.056,-57.924
-8.251,60.069,68.32,-25.909,-38.286,64.053,-18.067,-36.869,-41.635,-27.601,-5.3661,-50.566
-14.3,59.61,73.91,-22.655,-44.105,66.854,-13.194,-35.03,-40.801,-31.756,-8.2965,-45.564
-10.82,63.926,74.746,-26.553,-42.783,69.257,-17.972,-39.37,-42.897,-27.546,-19.924,-46.078
2.0344,69.942,67.908,-35.988,-32.937,69.049,-30.043,-48.076,-49.856,-18.209,-34.959,-52.103
20.306,77.453,57.147,-48.88,-18.421,68.329,-40.405,-53.466,-53.465,-9.0607,-41.378,-59.057
28.252,79.736,51.483,-53.994,-11.616,66.578,-43.622,-53.891,-53.778,-4.2905,-37.498,-63.829
21.562,73.738,52.175,-47.65,-15.306,64.01,-39.077,-49.61,-50.905,-7.7185,-27.441,-64.688
6.0593,65.694,59.635,-35.877,-26.788,62.734,-27.808,-41.831,-45.136,-17.648,-14.165,-59.075
-9.7075,59.533,69.24,-24.913,-39.474,64.399,-16.114,-34.982,-39.944,-26.755,-5.9509,-51.288
-15.99,59.125,75.115,-21.567,-45.552,67.069,-11.065,-32.924,-38.021,-30.557,-8.3965,-45.434
-10.322,63.443,73.765,-26.56,-42.044,68.698,-16.737,-37.482,-41.802,-27.365,-18.569,-46.176
3.133,70.174,67.041,-36.654,-31.954,69.233,-29.028,-45.916,-48.042,-18.953,-32.678,-52.781
18.715,77.229,58.514,-47.972,-19.899,68.331,-39.677,-51.849,-52.469,-9.2468,-39.897,-59.376
26.842,80.315,53.473,-53.578,-13.316,67.377,-43.676,-52.806,-52.788,-3.5988,-38.223,-64.894
19.909,74.775,54.866,-47.342,-17.479,65.406,-39.686,-49.948,-49.869,-8.0324,-27.815,-65.692
5.0444,66.77,61.726,-35.907,-28.341,65.316,-28.993,-43.115,-45.049,-17.214,-14,-60.022
-6.1237,61.589,67.713,-27.733,-36.918,64.528,-16.945,-35.587,-39.952,-26.541,-6.1,-52.42
-14.603,60.804,75.407,-23.1,-45.005,68.17,-12.312,-32.89,-38.069,-30.757,-8.1908,-45.892
-10.635,63.441,74.075,-26.403,-42.355,68.732,-16.289,-37.493,-41.159,-26.6,-19.419,-46.138
5.0416,73.863,68.822,-39.452,-31.89,72.121,-27.849,-45.048,-46.842,-17.027,-31.905,-51.094
20.713,80.882,60.169,-50.797,-19.728,70.739,-38.929,-50.89,-51.844,-7.3304,-40.23,-59.749
29.121,81.866,52.746,-55.493,-11.813,68.527,-44.225,-53.627,-52.8,-3.3702,-38.866,-65.508
24.52,78.297,53.776,-51.408,-14.628,66.262,-40.795,-49.583,-49.941,-6.733,-27.62,-65.533
8.979,70.078,61.099,-39.529,-26.06,66.343,-29.928,-41.943,-44.043,-15.73,-14.16,-60.073
-7.8999,62.803,70.703,-27.451,-39.301,66.768,-18.002,-36.001,-39.278,-26.278,-7.1619,-52.583
-15.83,61.176,77.006,-22.673,-46.418,69.091,-13.254,-33.95,-37.748,-31.838,-8.7498,-47.157
-13.046,64.043,77.089,-25.498,-45.068,70.548,-17.363,-37.879,-39.897,-27.623,-19.231,-46.32
2.0104,71.744,69.734,-36.877,-33.862,70.824,-28.739,-44.843,-45.279,-17.904,-32.076,-51.063
20.078,79.415,59.337,-49.746,-19.63,70.429,-40.142,-52.383,-50.409,-7.2539,-39.873,-58.406
29.293,82.476,53.184,-55.885,-11.945,68.786,-44.26,-52.953,-50.899,-1.2283,-37.835,-63.475
23.7,79.443,55.743,-51.572,-16.021,68.651,-39.5,-48.016,-47.144,-4.1815,-26.573,-63.466
8.1789,70.827,62.648,-39.503,-27.234,66.809,-29.212,-41.125,-42.022,-14.083,-13.328,-59.131
-7.1093,63.153,70.263,-28.022,-38.686,66.712,-17.708,-34.977,-38.122,-24.944,-6.9153,-52.375
-15.642,62.099,77.741,-23.229,-46.692,69.885,-12.107,-32.51,-35.557,-29.724,-7.6331,-46.019
-11.059,66.396,77.455,-27.668,-44.257,71.995,-17.059,-36.297,-38.021,-26.28,-18.264,-45.37
3.044,74.155,71.111,-38.6,-34.034,73.297,-28.888,-45.072,-43.963,-17.137,-32.785,-51.744
21.009,80.827,59.819,-50.918,-19.405,70.718,-39.953,-52.03,-48.666,-7.2764,-41.049,-59.763
28.473,81.812,53.339,-55.143,-12.433,68.186,-44.868,-54.106,-50.399,-3.1109,-38.628,-65.59
24.077,78.988,54.911,-51.532,-15.417,66.775,-39.916,-49.506,-47.362,-4.707,-28.422,-64.809
11.008,71.964,60.956,-41.486,-24.974,67.361,-28.185,-41.094,-40.859,-14.074,-15.077,-59.035
-5.0448,63.78,68.824,-29.367,-36.935,66.228,-16.736,-34.943,-36.432,-24.58,-5.9371,-51.514
-14.129,62.132,76.261,-24.002,-45.195,69.262,-11.101,-32.951,-34.549,-29.186,-8.3596,-46.64
-10.135,65.683,75.818,-27.774,-42.977,70.676,-16.038,-37.464,-37.728,-25.732,-18.661,-46.431
2.3003,74.027,71.727,-38.164,-34.713,73.023,-27.955,-45.131,-43.103,-16.018,-31.692,-51.037
20.056,83.348,63.292,-51.702,-21.618,74.29,-38.684,-51.855,-46.504,-6.0947,-40.403,-58.355
29.176,84.412,55.237,-56.794,-13.031,70.925,-42.747,-52.523,-48.517,-1.2472,-38.336,-63.918
24.508,80.185,55.678,-52.346,-15.585,68.209,-37.988,-47.393,-45.249,-4.7715,-26.526,-64.656
9.0176,72.945,63.927,-40.981,-27.455,69.171,-26.907,-40.005,-38.991,-12.958,-13.158,-59.079
-6.7506,65.99,72.74,-29.62,-39.745,69.373,-14.98,-32.763,-34.224,-24.04,-4.996,-51.325
-15.086,63.513,78.599,-24.214,-46.843,71.091,-10.309,-31.558,-33.198,-28.662,-7.2701,-45.066
-10.547,67.285,77.832,-28.369,-44.19,72.47,-14.256,-35.867,-36.057,-25.324,-18.347,-44.309
4.243,76.184,71.941,-40.214,-33.849,74.285,-25.98,-42.962,-41.964,-16.075,-31.8,-50.005
21.886,85.236,63.35,-53.561,-20.732,74.948,-37.771,-50.106,-46.649,-4.9935,-38.954,-57.306
29.559,86.521,56.962,-58.04,-13.702,72.092,-41.671,-52.07,-48.434,-0.25024,-36.734,-63.036
25.011,82.057,57.046,-53.534,-16.018,70.776,-37.074,-47.502,-45.301,-4.3945,-25.734,-62.906
11.233,75.131,63.898,-43.182,-26.333,70.298,-25.788,-39.938,-38.961,-13.954,-11.929,-57.903
-5.3796,67.554,72.934,-31.087,-39.157,70.302,-14.181,-32.827,-34.243,-23.7,-3.1168,-50.368
-15.498,64.68,80.178,-24.591,-47.838,72.358,-8.6558,-31.461,-33.189,-27.58,-4.768,-44.371
-13.12,66.816,79.936,-26.848,-46.528,73.468,-12.934,-36.556,-36.059,-24.37,-15.214,-45.245
2.1631,76.729,74.566,-39.446,-36.202,75.498,-24.939,-44.115,-41.979,-15.858,-29.736,-50.042
20.863,84.048,63.185,-52.455,-21.161,74.021,-35.94,-50.799,-46.494,-5.3681,-37.002,-57.411
29.383,86.874,57.491,-58.128,-14.054,72.783,-40.848,-51.967,-46.808,-0.96466,-34.344,-62.521
26.452,84.59,58.138,-55.521,-15.843,71.202,-35.964,-47.575,-43.264,-3.4732,-22.425,-61.833
10.116,74.985,64.869,-42.551,-27.376,70.009,-24.921,-39.856,-37.789,-13.088,-10.248,-56.823
-5.8089,68.124,73.933,-31.158,-39.871,70.986,-14.218,-32.965,-33.443,-23.649,-2.7542,-48.516
-13.98,67.231,81.211,-26.625,-47.596,74.236,-8.5753,-30.913,-31.55,-27.989,-4.1717,-43.64
-10.258,70.601,80.859,-30.171,-45.559,75.734,-13.624,-36.051,-34.706,-26.163,-15.337,-43.418
4.0799,78.241,74.161,-41.161,-35.041,76.218,-26.031,-46.136,-41.833,-18.012,-29.78,-48.902
19.479,84.388,64.908,-51.933,-22.715,75.854,-35.549,-52.529,-45.704,-8.2138,-38.026,-56.462
27.232,85.643,58.412,-56.437,-15.59,72.385,-39.835,-52.565,-46.952,-2.3923,-35.45,-61.488
25.234,84.37,59.136,-54.802,-16.951,72.41,-34.909,-46.091,-43.196,-3.8016,-22.104,-60.849
8.1378,74.854,66.716,-41.496,-29.289,70.995,-24.094,-37.765,-37.014,-12.009,-8.1296,-55.908
-10.028,63.302,73.331,-26.637,-41.68,68.25,-13.966,-33.513,-33.446,-23.003,-2.2148,-49.779
-17.522,61.543,79.065,-22.011,-48.293,70.304,-7.4858,-31.443,-31.51,-27.686,-4.0778,-43.963
-11.921,66.392,78.313,-27.235,-45.117,72.414,-12.08,-35.389,-34.788,-24.296,-16.098,-44.104
5.2716,76.999,71.727,-41.135,-33.228,75.01,-22.874,-43.07,-40.857,-15.961,-30.733,-49.075
22.351,85.984,63.633,-54.167,-20.641,75.252,-32.966,-48.94,-46.284,-6.5362,-38.008,-56.599
28.361,86.852,58.491,-57.607,-15.065,73.168,-37.445,-51.195,-49.137,-3.6006,-35.371,-62.749
23.538,82.717,59.179,-53.127,-17.82,71.517,-31.711,-46.379,-45.133,-5.938,-22.833,-61.07
8.022,73.771,65.749,-40.896,-28.863,70.049,-22.03,-39.126,-38.948,-13.808,-9.0705,-54.957
-6.3204,66.15,72.47,-29.915,-39.395,69.155,-11.065,-32.732,-34.513,-21.214,-0.8918,-47.445
-12.236,65.22,77.456,-26.492,-44.846,71.453,-8.3726,-31.945,-34.449,-23.101,-1.6032,-40.874
-8.8819,68.091,76.973,-29.605,-42.927,72.426,-13.518,-37.69,-40.896,-22.521,-12.34,-41.15
4.0934,73.123,69.03,-38.608,-32.468,71.197,-24.678,-45.888,-50.152,-17.839,-26.565,-47.681
20.719,79.99,59.271,-50.354,-19.276,69.443,-34.704,-52.894,-56.88,-12.529,-34.509,-54.79
27.262,79.999,52.737,-53.631,-12.737,66.987,-36.297,-51.377,-57.08,-12.036,-33.99,-60.155
23.909,74.343,50.433,-49.126,-13.262,62.776,-28.31,-45.204,-51.713,-17.606,-22.513,-58.627
9.1209,66.009,56.888,-37.565,-23.884,62.12,-16.009,-38.235,-49.182,-31.023,-11.004,-53.231
-9.3125,54.818,64.13,-22.753,-36.721,59.535,-5.1996,-32.832,-48.661,-44.371,-5.6362,-46.458
-17.598,48.726,66.324,-15.564,-41.961,57.503,-1.8403,-31.485,-50.69,-52.138,-9.7808,-42.011
-12.462,51.729,64.191,-19.634,-38.326,57.943,-6.4551,-36.008,-56.156,-52.586,-22.688,-43.307
3.9044,58.091,54.187,-30.998,-25.141,56.243,-15.966,-40.18,-60.957,-46.256,-38.024,-47.936
22.241,64.239,41.997,-43.24,-9.878,54.123,-25.805,-46.114,-68.861,-41.386,-44.293,-54.112
30.941,70.185,39.244,-50.563,-4.1519,55.779,-31.374,-50.105,-76.313,-43.805,-40.318,-55.884
27.918,68.722,40.804,-48.32,-6.4426,55.086,-27.577,-47.972,-75.678,-50.138,-27.15,-52.922
14.995,59.001,44.006,-36.998,-14.505,52.174,-19.222,-42.288,-74.901,-62.13,-12.078,-45.953
2.0049,52.302,50.297,-27.154,-24.146,51.41,-12.602,-39.388,-77.735,-76.099,-2.3701,-34.682
-3.2037,50.404,53.608,-23.6,-28.406,51.855,-10.111,-40.305,-82.298,-84.388,-3.9524,-26.926
0.74791,43.849,43.101,-22.298,-21.177,44.242,-11.969,-42.729,-87.436,-90.785,-21.904,-31.473
15.914,26.041,10.127,-20.978,2.8933,18.257,-11.131,-35.061,-78.974,-78.117,-42.733,-46.006
31.719,6.0654,-25.654,-18.892,28.686,-9.8642,-7.8667,-23.591,-65.745,-66.859,-64.59,-63.614
37.981,-20.128,-58.109,-8.9261,48.045,-39.078,1.6686,-7.8783,-51.003,-63.97,-80.863,-82.432
32.388,-54.254,-86.642,10.933,59.515,-70.475,19.932,10.999,-33.098,-69.585,-87.285,-96.353
16.189,-78.07,-94.259,30.94,55.224,-86.148,37.094,22.198,-27.79,-88.01,-87.118,-100.94
0.41321,-100.59,-101,50.088,50.708,-100.81,52.048,34.496,-18.773,-95.334,-84.939,-99.772
-4.5931,-117.15,-112.55,60.87,53.98,-114.84,63.047,43.708,-8.4581,-91.572,-89.957,-101.13
-1.4609,-127.05,-125.59,64.254,62.063,-126.32,63.426,45.256,-4.6726,-82.415,-103.08,-107.78
10.8,-134.95,-145.75,62.074,78.274,-140.34,60.141,44.704,-9.9097,-79.953,-126.85,-121.97
27.036,-134.91,-161.95,53.937,94.491,-148.44,56.202,44.539,-11.605,-80.68,-145.47,-136.3
34.069,-133.11,-167.18,49.52,100.62,-150.13,55.506,46.451,-7.4132,-76.35,-144.31,-142.93
28.294,-131.13,-159.43,51.419,93.86,-145.3,61.13,50.111,-2.748,-78.085,-132.72,-143.81
13.19,-132.88,-146.07,59.845,79.63,-139.44,72.974,62.07,8.2267,-81.868,-118,-137.88
-3.154,-138.46,-135.31,70.808,66.077,-136.94,86.312,75.116,27.775,-80.656,-107.92,-132.33
-11.453,-140.68,-129.23,76.065,58.887,-134.84,92.199,82.275,43.398,-74.586,-107.87,-128.16
-3.6947,-136.09,-132.39,69.89,64.348,-134.98,90.043,85.781,54.727,-62.508,-116.84,-129.2
9.2693,-128.01,-137.28,59.369,73.273,-132.84,82.061,84.893,65.372,-47.998,-132.94,-139.9
26.249,-113.26,-139.51,43.507,82.88,-126.29,71.084,83.494,82.741,-28.142,-138,-145.98
36.339,-106.76,-143.1,35.209,89.718,-125.01,70.733,93.04,104.09,-17.445,-133.33,-150.97
31.451,-105.03,-136.48,36.789,83.965,-120.67,80.397,109.81,131.66,-13.673,-119.59,-151.03
15.95,-107.12,-123.07,45.587,69.511,-115.21,96.136,132.25,159.66,-14.663,-103.77,-144.82
-1.9458,-108.23,-106.29,55.089,52.174,-107.08,113.4,149.89,175.37,-19.773,-93.738,-136.48
-10.042,-100.66,-90.622,55.353,40.283,-96.258,117.39,149.5,176.62,-16.711,-92.726,-129.54
-10.726,-91.025,-80.298,50.876,34.797,-86.051,116.29,142.13,158.54,-16.366,-101.8,-128.83
-2.1591,-81.09,-78.931,41.625,38.368,-79.883,113.17,130.09,112.57,-26.886,-119.97,-137.04
11.584,-67.756,-79.34,28.086,45.49,-73.605,107.92,121.99,74.283,-32.605,-128.08,-143.78
15.67,-55.874,-71.544,20.102,43.562,-63.694,109.18,119.32,50.1,-35.783,-121.8,-145.38
5.9503,-55.189,-61.139,24.619,33.622,-58.141,119.9,119.71,37.576,-46.29,-110.86,-142.49
-11.015,-53.734,-42.719,32.374,15.667,-49.097,129.79,118.32,30.157,-59.86,-96.006,-132.14
-29.271,-50.688,-21.417,39.979,-4.6752,-35.895,131.98,112.04,21.552,-69.978,-85.495,-120.62
-37.088,-43.978,-6.8892,40.533,-14.979,-26.035,125.12,99.73,7.1146,-74.554,-83.051,-110.27
-27.313,-26.404,0.9096,26.858,-14.172,-13.149,110.71,85.059,-3.6896,-67.041,-85.735,-103.06
-9.1651,-1.2253,7.9398,5.1952,-9.3159,3.5451,89.072,69.959,-9.0576,-48.808,-85.743,-98.951
8.2736,22.251,13.977,-15.262,-2.8754,19.179,67.065,56.485,-11.494,-27.626,-79.735,-96.572
16.433,36.48,20.047,-26.456,-1.792,28.803,51.811,44.195,-13.932,-16.841,-68.217,-93.412
13.412,44.144,30.733,-28.778,-8.6699,37.29,45.251,35.811,-12.063,-14.587,-49,-85.952
1.2066,45.037,43.831,-23.122,-21.307,45.324,44.974,31.3,-7.8969,-18.843,-29.989,-75.873
-14.888,41.557,56.445,-13.335,-35.669,48.929,43.387,27.86,-4.4146,-22.647,-18.546,-64.996
-20.486,43.914,64.4,-11.714,-42.442,54.229,36.137,20.59,-2.9935,-21.628,-17.895,-57.636
-13.626,54.081,67.707,-20.227,-40.666,60.799,21.491,7.1251,-6.8817,-13.255,-24.407,-54.906
1.35,69.181,67.831,-35.266,-33.241,69.501,1.3439,-7.9774,-12.131,-0.96957,-32.664,-57.02
19.884,80.407,60.523,-50.146,-20.32,71.208,-13.856,-20.273,-17.816,9.6963,-35.34,-61.828
27.944,83.929,55.985,-55.936,-14.021,69.839,-21.946,-26.123,-18.76,13.965,-30.77,-64.934
24.291,82.18,57.889,-53.236,-16.799,70.095,-19.381,-25.274,-16.552,12.213,-17.686,-63.091
8.2749,75.027,66.753,-41.651,-29.239,70.851,-12.003,-23.072,-13.019,2.3581,-5.1061,-56.865
-6.7875,69.028,75.816,-31.12,-41.302,72.449,-3.3618,-19.395,-9.4832,-5.4144,0.62656,-48.318
-15.016,66.574,81.59,-25.779,-48.303,74.062,0.0055095,-20.07,-9.6078,-8.4405,-2.3437,-42.341
-11.188,69.612,80.8,-29.212,-45.994,75.218,-7.7207,-26.272,-14.529,-5.9843,-13.255,-43.865
2.9805,78.058,75.078,-40.519,-36.049,77.405,-19.999,-36.013,-22.006,0.091911,-27.749,-50.056
20.188,87.581,67.394,-53.885,-23.603,78.639,-32.117,-44.185,-26.511,9.8886,-33.424,-56.008
28.641,92.073,63.432,-60.357,-17.396,78.233,-36.313,-45.964,-26.713,14.796,-29.163,-60.567
23.989,90.074,66.086,-57.031,-21.048,77.979,-30.892,-42.229,-23.996,11.131,-16.924,-59.117
10.229,84.657,74.429,-47.443,-32.1,79.587,-19.123,-35.063,-17.986,4.1956,-3.1282,-52.996
-6.3852,75.495,81.88,-34.555,-44.133,78.67,-9.5276,-29.079,-13.5,-3.8492,1.245,-46.764
-15.941,71.21,87.151,-27.635,-51.546,79.18,-6.8049,-28.644,-13.272,-8.8379,-2.3671,-43.204
-9.4953,75.555,85.05,-33.03,-47.273,80.315,-12.737,-32.841,-16.079,-4.5366,-13.318,-43.493
4.8412,82.884,78.043,-43.863,-36.601,81.279,-24.207,-39.985,-21.026,3.9988,-25.182,-48.91
20.088,90.8,70.711,-55.444,-25.312,81.955,-34.415,-46.984,-25.759,12.532,-32.683,-56.256
28.733,95.87,67.137,-62.302,-19.202,81.878,-37.2,-47.355,-26.854,16.842,-29.249,-60.265
23.332,92.108,68.775,-57.72,-22.721,81.067,-31.879,-43.171,-23.88,11.863,-17.481,-60.631
8.9941,85.959,76.965,-47.477,-33.985,82.525,-21.855,-36.05,-18.17,2.0561,-5.2186,-55.087
-6.7514,77.362,84.113,-35.305,-45.432,80.588,-11.29,-30.116,-14.273,-6.6469,0.74782,-48.778
-15.365,73.149,88.514,-28.892,-51.939,80.961,-7.9766,-29.533,-13.063,-10.313,-2.8797,-45.096
-13.094,74.097,87.191,-30.502,-50.142,80.495,-15.785,-34.586,-16.849,-4.8228,-13.8,-46.262
1.0518,80.257,79.206,-40.655,-39.077,80.793,-26.046,-41.109,-21.19,5.1151,-24.844,-51.831
18.132,89.172,71.04,-53.652,-26.454,80.735,-35.762,-46.804,-24.336,15.666,-30.548,-58.338
28.975,93.214,64.239,-61.095,-17.632,79.094,-38.836,-47.543,-24.896,19.69,-25.599,-61.433
23.682,89.606,65.924,-56.644,-21.121,78.977,-32.683,-42.377,-21.192,15.622,-13.454,-59.632
9.1589,82.045,72.886,-45.602,-31.864,78.26,-22.975,-35.895,-15.883,6.0902,-1.2749,-54.971
-5.1227,75.473,80.596,-35.175,-42.859,78.079,-12.214,-30.17,-12.779,-2.5821,2.2838,-47.668
-15.738,71.401,87.14,-27.832,-51.439,79.22,-8.7694,-29.509,-13.799,-7.0131,-1.7128,-44.526
-12.279,74.598,86.878,-31.16,-49.579,80.8,-14.126,-34.585,-17.216,-5.1427,-14.248,-47.059
2.9745,83.968,80.993,-43.471,-39.009,83.18,-25.031,-41.979,-21.877,2.9369,-26.788,-52.931
18.617,90.768,72.151,-54.693,-26.767,81.761,-36.933,-47.87,-25.643,11.504,-32.883,-60.542
27.97,94.918,66.947,-61.444,-19.489,82.015,-39.711,-48.481,-24.863,16.481,-28.246,-65.005
25.485,93.769,68.284,-59.627,-21.399,82.014,-33.811,-43.459,-19.969,15.307,-15.27,-63.74
9.1691,83.961,74.792,-46.565,-32.811,80.301,-22.158,-35.919,-14.986,5.2399,-4.1207,-58.88
-7.1012,76.771,83.872,-34.835,-45.487,80.279,-12.481,-30.398,-10.37,-3.6442,1.4215,-51.822
-15.762,73.423,89.185,-28.83,-52.473,81.318,-9.8861,-30.698,-10.797,-7.7035,-2.5622,-47.718
-10.263,76.71,86.973,-33.224,-48.618,81.847,-15.068,-34.87,-14.154,-3.6066,-12.533,-47.42
3.0264,84.873,81.847,-43.95,-39.41,84.118,-25.98,-40.978,-19.006,5.9348,-24.927,-52.008
18.907,92.171,73.264,-55.539,-27.178,82.943,-35.618,-47.073,-22.237,15.772,-30.341,-59.454
26.183,93.953,67.771,-60.068,-20.794,82.076,-39.732,-48.998,-21.537,19.169,-26.512,-64.425
20.146,90.265,70.119,-55.206,-24.986,80.421,-35.602,-45.22,-19.698,14.562,-16.4,-64.539
7.9812,82.953,74.972,-45.467,-33.495,78.914,-26.019,-37.986,-14.994,5.0334,-4.9869,-59.954
-6.937,77.264,84.201,-35.164,-45.569,80.748,-14.956,-30.887,-10.267,-3.2745,0.34842,-52.718
-16.269,75.714,91.983,-29.722,-54.126,83.848,-10.657,-28.993,-9.0664,-7.0071,-3.8025,-49.164
-11.394,78.512,89.906,-33.559,-50.65,84.191,-16.174,-33.429,-12.838,-4.4652,-16.108,-50.175
3.0023,87.112,84.11,-45.057,-40.554,86.498,-26.974,-41.122,-18.052,3.2117,-29.044,-55.174
20.211,95.057,74.846,-57.634,-27.317,85.998,-37.769,-46.667,-21.434,12.552,-34.131,-61.944
28.323,97.149,68.826,-62.736,-20.252,83.953,-41.303,-48.114,-21.747,16.755,-28.936,-64.818
21.475,92.416,70.942,-56.946,-24.733,82.72,-35.241,-42.83,-18.969,12.572,-18.329,-63.823
7.9304,85.907,77.976,-46.919,-35.023,82.041,-22.921,-34.825,-13.013,3.1624,-6.1329,-58.042
-6.6482,78.608,85.257,-35.98,-45.952,81.891,-12.526,-29.259,-8.3193,-4.3554,0.75865,-51.809
-15.194,76.001,91.195,-30.404,-53.194,83.632,-9.8584,-28.411,-6.9407,-7.5026,-2.8272,-48.065
-9.8466,79.72,89.566,-34.937,-49.706,84.603,-15.073,-33.708,-11.594,-4.3931,-14.45,-49.304
6.0907,87.141,81.05,-46.616,-37.48,84.153,-26.083,-40.788,-17.052,4.1074,-26.856,-53.96
20.361,93.619,73.258,-56.99,-26.449,83.328,-37.87,-47.336,-20.695,13.372,-32.607,-61.574
27.781,95.897,68.116,-61.839,-20.168,82.496,-40.826,-47.968,-21.553,16.563,-29.657,-65.915
21.482,93.479,71.997,-57.481,-25.257,83.877,-34.094,-43.028,-16.947,12.728,-19.284,-65.45
8.1724,85.043,76.87,-46.608,-34.349,81.012,-22.834,-36.029,-12.117,2.1015,-8.9062,-60.086
-6.1309,77.673,83.804,-35.771,-44.967,80.718,-11.274,-29.078,-8.2248,-6.3713,-0.99524,-51.372
-14.21,77.335,91.545,-31.563,-52.877,84.47,-7.3716,-28.205,-7.1918,-9.521,-3.7045,-46.76
-8.8589,84.555,93.414,-37.848,-51.136,88.932,-11.29,-31.691,-10.059,-6.3344,-15.498,-46.281
3.9873,91.175,87.188,-47.581,-41.6,89.27,-22.818,-39.032,-16.822,1.0481,-29.581,-52.991
20.856,99.12,78.264,-59.988,-28.704,88.522,-33.92,-46.134,-21.667,8.3215,-37.011,-61.283
26.522,101.05,74.526,-63.785,-24.002,88.4,-36.743,-47.644,-21.241,13.693,-32.245,-64.979
20.101,96.578,76.477,-58.339,-28.188,86.912,-30.753,-42.304,-17.23,11.457,-18.636,-63.064
7.1788,87.957,80.779,-47.568,-36.8,85.052,-20.063,-35.151,-11.711,3.0519,-6.1221,-57.858
-8.1524,80.821,88.974,-36.334,-48.563,84.936,-9.1659,-28.754,-7.9261,-5.8133,-0.55213,-51.908
-16.615,76.964,93.579,-30.174,-55.097,85.286,-5.8281,-27.595,-7.9091,-10.892,-4.9294,-47.69
-12.067,79.573,91.64,-33.753,-51.854,85.529,-11.031,-31.8,-9.2786,-6.4575,-16.383,-47.391
2.0308,88.004,85.973,-45.018,-41.971,87.205,-23.009,-39.905,-13.867,1.0409,-29.769,-52.952
20.046,97.704,77.658,-58.875,-28.806,88.337,-33.355,-45.605,-17.829,9.5907,-35.639,-60.262
27.399,101.53,74.134,-64.466,-23.368,88.187,-34.518,-45.465,-18.383,13.697,-32.65,-63.932
23.22,99.043,75.824,-61.131,-26.302,88.651,-28.882,-39.764,-14.733,9.6607,-21.75,-62.725
7.2049,91.883,84.679,-49.544,-38.737,89.077,-18.003,-31.915,-10.066,-0.01025,-7.2094,-56.331
-8.702,83.927,92.629,-37.612,-50.665,88.317,-8.4233,-25.966,-5.1677,-8.2425,-1.5989,-49.314
-15.35,81.583,96.933,-33.117,-56.141,89.218,-4.1507,-24.294,-4.4795,-12.03,-5.8055,-45.562
-11.193,84.687,95.881,-36.747,-53.537,90.324,-9.713,-30.332,-9.6597,-9.444,-18.133,-47.328
3.0657,91.054,87.988,-47.06,-42.461,90.317,-21.985,-37.247,-15.088,-0.20352,-30.995,-52.938
19.734,96.991,77.256,-58.362,-28.761,88.341,-31.479,-42.466,-18.307,7.5834,-37.708,-60.249
26.231,99.359,73.128,-62.795,-23.448,86.597,-33.796,-42.536,-16.769,11.709,-34.159,-64.002
22.976,97.724,74.748,-60.35,-25.886,86.891,-27.063,-36.72,-12.027,7.6622,-23.179,-62.033
7.2002,91.077,83.877,-49.139,-38.338,88.494,-15.982,-28.963,-6.9966,-2.1351,-12.199,-56.104
-9.827,82.637,92.464,-36.405,-51.146,87.474,-6.5459,-24.264,-4.8977,-13.918,-7.592,-50.815
-15.931,81.65,97.582,-32.86,-56.756,89.631,-3.8597,-23.388,-5.2518,-19.181,-11.901,-47.125
-10.35,85.808,96.157,-37.729,-53.254,91.021,-9.0566,-29.29,-8.7274,-16.393,-23.423,-48.168
3.9375,94.677,90.739,-49.307,-43.401,92.59,-20.887,-37.103,-14.197,-7.9922,-35.918,-54.063
18.741,102.46,83.722,-60.602,-32.491,93.481,-30.491,-42.728,-18.436,0.24671,-42.737,-61.099
26.759,105.13,78.367,-65.943,-25.804,92.352,-33.132,-43.987,-18.75,1.7881,-39.19,-65.52
20.623,100.54,79.918,-60.582,-29.648,90.074,-27.957,-39.584,-15.963,-0.94685,-27.57,-64.152
5.1549,91.991,86.836,-48.573,-40.841,90.279,-16.888,-31.799,-10.008,-9.8399,-15.013,-57.992
-9.8517,84.786,94.638,-37.467,-52.245,89.698,-6.5204,-25.203,-5.4505,-19.681,-8.6501,-51.607
-17.56,81.017,98.577,-31.729,-58.069,89.767,-3.8691,-24.391,-5.6252,-24.011,-14.653,-46.891
-12.505,83.488,95.993,-35.491,-54.249,89.821,-9.0637,-30.342,-9.9827,-21.545,-25.727,-48.442
2.3659,92.191,89.825,-47.278,-43.729,90.843,-20.01,-37.131,-14.853,-11.952,-37.82,-52.707
20.813,102.47,81.661,-61.643,-30.424,92.516,-29.555,-42.978,-19.144,-4.0356,-43.563,-58.675
28.823,105.09,76.264,-66.955,-23.721,91.172,-33.886,-45.104,-22.642,-3.5805,-40.825,-64.609
21.889,101.16,79.27,-61.524,-28.69,90.779,-28.255,-40.536,-19.243,-8.4937,-28.897,-63.836
7.0249,94.063,87.038,-50.544,-40.007,91.651,-16.043,-32.843,-12.899,-17.88,-16.891,-57.13
-8.1825,84.981,93.163,-38.399,-50.673,88.899,-6.4783,-27.534,-8.7099,-27.938,-11.756,-50.975
-18.097,78.823,96.919,-30.363,-57.508,88.015,-4.0357,-27.142,-9.7956,-32.798,-17.659,-48.319
-10.815,85.072,95.887,-37.128,-53.351,90.32,-7.6538,-31.384,-13.796,-28.581,-28.086,-48.506
4.1151,92.954,88.839,-48.535,-42.362,91.163,-19.521,-39.121,-20.89,-19.896,-38.846,-52.886
19.741,99.49,79.749,-59.615,-30.004,90.246,-29.909,-44.71,-25.645,-10.412,-44.243,-59.45
27.774,103.45,75.671,-65.61,-23.948,89.927,-33.149,-46,-25.201,-6.2218,-38.88,-64.139
21.587,97.713,76.126,-59.65,-27.269,88.131,-27.977,-41.581,-21.874,-11.05,-28.339,-61.995
7.0705,88.953,81.883,-48.012,-37.406,86.213,-16.804,-33.781,-16.888,-21.952,-16.191,-56.002
-7.9723,81.83,89.802,-36.929,-48.887,85.861,-5.4617,-27.384,-12.698,-31.796,-10.429,-48.499
-17.209,77.912,95.121,-30.351,-56.165,86.466,-2.9238,-27.683,-13.803,-37.317,-15.458,-43.945
-12.504,81.215,93.719,-34.356,-53.111,87.529,-7.983,-32.433,-17.8,-33.679,-27.445,-45.936
3.0018,90.173,87.171,-46.588,-42.085,89.372,-20.018,-40.215,-24.851,-24.923,-40.87,-52.126
18.689,98.053,79.364,-58.371,-30.338,89.012,-30.613,-46.674,-29.969,-17.988,-47.464,-60.293
27.229,100.11,72.884,-63.671,-22.827,87.577,-34.857,-48.443,-32.432,-15.848,-43.432,-63.872
21.752,95.516,73.765,-58.634,-26.007,85.636,-29.269,-44.753,-29.968,-21.159,-33.5,-62.83
6.0816,86.976,80.894,-46.529,-37.406,84.046,-17.055,-35.854,-24.946,-30.975,-20.982,-56.96
-8.6785,78.72,87.399,-35.021,-48.039,83.039,-7.2984,-30.534,-21.616,-39.427,-14.467,-49.663
-14.902,77.295,92.197,-31.197,-53.549,84.726,-3.7232,-30.196,-21.133,-42.108,-16.904,-44.055
-10.099,79.857,89.956,-34.879,-50.028,84.968,-9.1393,-33.726,-24.818,-37.606,-26.547,-44.005
4.9798,88.948,83.968,-46.964,-39.494,87.126,-19.996,-41.745,-30.086,-27.095,-37.968,-49.187
22.981,96.871,73.89,-59.926,-25.454,85.776,-30.853,-47.038,-34.726,-17.515,-42.118,-54.925
30.6,98.034,67.434,-64.317,-18.417,83.339,-36.324,-49.084,-35.869,-14.617,-36.652,-59.951
24.762,92.877,68.115,-58.819,-21.677,80.333,-32.103,-44.524,-32.874,-16.931,-23.786,-60.003
7.4235,83.923,76.499,-45.673,-34.538,81.094,-19.18,-36.931,-28.017,-25.764,-10.218,-53.873
-5.8034,75.226,81.029,-34.711,-43.416,78.082,-9.2872,-32.568,-26.012,-37.383,-5.7701,-46.815
-15.576,70.109,85.685,-27.267,-50.63,77.917,-5.6572,-32.135,-27.97,-42.439,-11.502,-43.052
-7.7164,75.08,82.796,-33.682,-45.256,78.94,-11.824,-36.372,-31.072,-36.776,-23.48,-44.316
10.294,85.173,74.879,-47.734,-32.293,79.986,-23.168,-44.989,-37.762,-27.757,-35.04,-48.942
23.975,94.056,70.081,-59.016,-23.053,82.295,-34.773,-50.917,-43.06,-17.445,-40.16,-56.622
31.057,96.525,65.468,-63.791,-17.205,82.207,-38.251,-53.589,-45.042,-12.881,-34.649,-60.548
26.463,92.73,66.267,-59.597,-19.902,79.733,-32.889,-49.658,-41.123,-15.61,-21.757,-58.552
11.17,82.043,70.873,-46.607,-29.851,77.202,-21.948,-41.764,-35.929,-24.78,-9.0709,-54.912
-6.7171,70.955,77.672,-32.119,-42.195,74.343,-11.454,-35.248,-31.263,-33.806,-2.2001,-47.559
-16.677,66.666,83.343,-24.994,-50.01,74.984,-8.9782,-34.078,-30.149,-36.802,-5.9998,-42.551
-8.0499,72.214,80.264,-32.082,-44.157,76.251,-13.352,-37.824,-33.152,-30.722,-16.048,-43.119
8.013,81.036,73.023,-44.524,-32.505,77.064,-24.758,-43.983,-37.934,-20.077,-26.022,-49.02
21.23,86.757,65.526,-53.994,-22.148,77.295,-34.77,-50.107,-41.537,-9.1852,-32.453,-56.244
29.612,90.473,60.861,-60.042,-15.625,76.147,-38.308,-51.642,-41.351,-5.5163,-28.11,-59.916
25.001,88.633,63.632,-56.817,-19.315,76.03,-32.224,-46.325,-37.106,-8.5305,-16.526,-58.764
8.7434,79.789,71.046,-44.266,-31.151,76.268,-20.798,-39.149,-31.978,-18.96,-4.2673,-53.936
-7.7123,71.938,79.651,-32.113,-43.681,75.763,-10.594,-33.98,-29.747,-29.561,0.69069,-47.895
-15.822,69.952,85.774,-27.065,-50.798,77.883,-7.7615,-31.922,-28.676,-32.076,-2.8549,-43.653
-9.0044,74.47,83.474,-32.733,-46.239,78.959,-13.766,-36.51,-31.083,-27.015,-13.801,-43.499
8.05,82.185,74.135,-45.117,-33.042,78.168,-25.937,-43.969,-34.972,-15.766,-25.674,-47.839
24.734,91.397,66.663,-58.065,-20.965,79.025,-34.309,-48.703,-37.608,-4.5261,-32.073,-54.669
30.926,94.445,63.519,-62.685,-16.297,78.985,-37.365,-50.012,-38.991,-1.5608,-31.184,-60.633
26.011,92.097,66.086,-59.054,-20.037,79.09,-31.081,-45.562,-35.194,-4.566,-17.441,-59.788
11.252,83.093,71.84,-47.173,-30.294,78.267,-20.06,-36.982,-28.086,-13.085,-3.0348,-53.22
-6.3551,72.125,78.48,-32.885,-42.418,75.303,-8.8481,-30.033,-23.396,-21.204,1.2524,-46.681
-14.192,68.91,83.103,-27.359,-48.648,76.007,-5.1727,-29.676,-23.7,-25.094,-2.4736,-43.23
-7.6307,73.431,81.062,-32.9,-44.346,77.246,-11.225,-33.793,-27.874,-21.817,-12.551,-43.527
7.1932,82.077,74.884,-44.635,-33.846,79.28,-22.941,-41.043,-33.103,-11.899,-25.865,-47.925
22.384,90.106,67.722,-56.245,-22.669,78.918,-34.696,-47.88,-37.531,-3.7918,-32.482,-54.185
30.123,92.081,61.958,-61.102,-15.918,77.013,-36.631,-48.563,-37.356,0.031857,-28.098,-58.291
24.83,87.522,62.692,-56.176,-18.931,75.12,-30.765,-42.733,-33.114,-2.5191,-16.547,-58.636
8.9606,79.032,70.072,-43.996,-30.555,75.332,-20.149,-34.933,-26.225,-11.117,-4.2382,-52.191
-6.83,71.803,78.633,-32.487,-42.731,75.25,-8.8101,-30.339,-22.376,-20.53,0.61319,-45.903
-14.576,70.204,84.78,-27.814,-49.678,77.442,-5.186,-28.982,-22.789,-25.131,-2.4118,-43.428
-9.4947,72.975,82.47,-31.74,-45.982,77.803,-11.248,-33.478,-26.176,-22.427,-12.588,-43.32
6.1421,80.929,74.786,-43.535,-34.322,77.715,-22.792,-41.061,-30.922,-13.081,-25.776,-49.08
22.358,89.029,66.671,-55.694,-22.157,78.249,-32.545,-46.637,-33.172,-3.2636,-31.395,-54.522
28.329,89.653,61.324,-58.991,-16.498,76.097,-35.107,-46.247,-32.635,0.50251,-27.521,-57.56
24.112,87.691,63.579,-55.901,-19.734,75.461,-29.957,-42.287,-30.013,-1.9751,-16.803,-58.885
11.046,81.949,70.903,-46.497,-29.929,77.329,-18.942,-34.024,-24.043,-10.744,-3.0848,-52.031
-5.3357,72.357,77.693,-33.511,-41.514,74.948,-8.1432,-28.323,-20.436,-20.884,1.1186,-45.917
-14.658,70.549,85.207,-27.945,-49.933,77.948,-3.0261,-26.535,-18.523,-24.078,-1.8187,-41.583
-5.9849,74.847,80.832,-34.431,-43.408,77.763,-8.8093,-30.359,-21.768,-19.661,-12.823,-42.139
9.0246,82.827,73.803,-45.926,-32.389,79.218,-20.007,-38.046,-27.069,-9.8441,-27.169,-47.958
22.408,90.303,67.895,-56.356,-22.743,78.923,-29.8,-44.029,-31.938,-0.96115,-34.575,-55.48
29.624,93.701,64.078,-61.663,-17.227,79.5,-35.01,-46.001,-34.095,1.8446,-31.73,-60.383
24.327,88.999,64.672,-56.663,-20.173,77.23,-29.204,-42.267,-30.103,-0.39283,-20.647,-60.613
9.247,78.849,69.602,-44.048,-30.177,74.891,-16.996,-34.019,-24.066,-10.077,-7.2357,-54.982
-7.2825,70.888,78.17,-31.803,-42.726,74.596,-4.9116,-27.133,-19.198,-19.521,-1.2022,-47.851
-15.184,69.314,84.498,-27.065,-49.841,76.876,-0.67918,-26.112,-18.192,-24.169,-2.7425,-43.301
-9.2598,75.373,84.633,-33.057,-46.946,80.003,-6.1396,-30.373,-21.093,-20.829,-13.21,-42.185
5.0676,82.988,77.92,-44.028,-36.426,81.287,-17.865,-38.162,-26.856,-10.713,-26.916,-48.103
23.175,90.396,67.22,-56.785,-22.023,78.71,-28.823,-43.515,-30.547,0.60159,-32.304,-55.068
31.786,92.8,61.014,-62.293,-14.614,77.393,-32.219,-43.438,-30.358,5.0856,-28.601,-59.791
25.63,86.674,61.044,-56.152,-17.707,74.995,-26.899,-38.446,-26.084,2.4473,-17.722,-60.768
8.407,77.102,68.695,-42.755,-30.144,72.965,-15.132,-30.949,-20.142,-6.0613,-4.1442,-54.866
-8.2445,69.964,78.209,-30.86,-43.227,74.048,-3.9727,-23.843,-16.247,-15.743,1.4354,-46.711
-14.356,69.741,84.097,-27.692,-49.227,76.978,0.44732,-22.414,-15.158,-21.665,-2.9314,-43.152
-9.6326,73.74,83.372,-32.053,-46.502,78.451,-5.8991,-27.634,-18.113,-19.602,-14.346,-44.187
2.1977,81.932,79.734,-42.065,-38.768,81.069,-17.863,-35.771,-23.883,-9.0277,-27.934,-49.174
19.821,89.025,69.205,-54.423,-24.692,79.756,-29.074,-42.204,-28.685,0.53779,-35.77,-57.407
28.409,91.533,63.125,-59.971,-17.358,77.696,-33.334,-43.556,-28.154,5.1784,-32.233,-62.547
25.412,87.718,62.306,-56.565,-18.447,76.213,-27.859,-38.428,-24.943,2.3017,-19.907,-61.773
9.9778,77.918,67.941,-43.948,-28.981,72.947,-16.165,-30.102,-18.149,-5.0146,-7.7061,-57.032
-6.9115,68.647,75.558,-30.868,-41.235,72.109,-6.3319,-24.129,-14.625,-16.355,-0.37442,-50.44
-14.795,67.678,82.473,-26.442,-48.634,75.085,-2.2627,-23.206,-13.705,-21.306,-1.1593,-43.94
-12.116,71.709,83.825,-29.797,-47.97,77.726,-7.0218,-26.636,-16.63,-17.138,-11.743,-44.018
3.9927,80.964,76.971,-42.478,-36.489,79.109,-18.022,-34.969,-23.075,-8.2141,-27.133,-50.161
21.834,90.362,68.528,-56.098,-23.347,80.252,-28.922,-40.722,-27.701,0.29187,-35.846,-58.45
30.187,93.705,63.518,-61.946,-16.665,78.378,-33.852,-42.09,-28.918,2.1427,-33.964,-65.707
24.195,88.947,64.752,-56.571,-20.279,77.642,-28.978,-36.833,-25.284,0.86397,-21.264,-65.322
6.9924,79.001,72.008,-42.996,-32.508,76.479,-17.002,-28.807,-17.078,-6.0308,-5.2411,-58.018
-7.9048,70.205,78.11,-31.15,-43.008,74.062,-5.0266,-21.953,-11.227,-15.645,0.58583,-51.675
-19.225,65.417,84.641,-23.096,-51.933,75.123,0.14559,-20.019,-9.7382,-19.697,-2.0125,-46.194
-12.286,71.557,83.843,-29.635,-48.064,77.572,-3.0897,-23.751,-11.918,-15.613,-10.762,-44.602
3.1877,77.764,74.576,-40.476,-35.694,77.218,-15.95,-31.904,-18.099,-6.1203,-24.664,-49.931
17.637,83.592,65.955,-50.614,-24.159,75.41,-27.765,-39.111,-25.08,1.1911,-34.574,-58.679
25.783,87.248,61.465,-56.515,-17.841,74.719,-31.671,-41.072,-26.973,2.872,-34.314,-65.057
19.682,82.57,62.888,-51.126,-21.603,73.942,-27.088,-36.485,-23.769,-0.609,-24.403,-65.487
3.8606,73.701,69.841,-38.781,-32.99,71.765,-14.902,-29.013,-19.117,-10.864,-12.889,-62.07
-13.967,65.194,79.161,-25.614,-46.564,72.222,-3.2587,-22.928,-14.027,-20.618,-5.3088,-55.267
-20.952,63.913,84.865,-21.481,-52.908,74.339,0.60827,-21.039,-13.807,-24.862,-8.4379,-49.596
-11.918,69.83,81.748,-28.956,-46.833,75.85,-3.2418,-24.737,-16.465,-19.237,-18.601,-48.79
2.951,79.135,76.184,-41.043,-36.616,78.363,-14.951,-32.134,-20.999,-7.9595,-30.949,-52.916
19.406,87.596,68.189,-53.501,-24.392,78.189,-26.875,-39.927,-26.788,1.5501,-38.936,-60.407
28.473,90.995,62.522,-59.734,-17.024,77.849,-30.167,-40.784,-28.254,3.5546,-37.095,-65.933
21.411,84.503,63.092,-52.957,-20.84,74.772,-24.983,-37.398,-26.091,-0.90744,-27.609,-66.043
7.1033,76.206,69.102,-41.654,-31,73.598,-12.124,-28.076,-19.114,-8.8739,-13.075,-59.836
-7.7443,68.171,75.915,-30.213,-41.83,71.971,-1.4289,-21.098,-14.203,-18.769,-5.5053,-52.886
-16.062,63.128,79.19,-23.533,-47.626,71.219,1.3366,-20.173,-13.16,-22.535,-9.6032,-48.638
-12.111,67.576,79.687,-27.733,-45.899,73.559,-1.3907,-24.245,-16.665,-19.391,-19.472,-49.055
0.18907,74.137,73.948,-37.163,-36.88,74.202,-13.865,-34.118,-24.117,-10.884,-34.581,-55.098
18.461,83.77,65.308,-51.115,-23.423,75.339,-25.811,-40.499,-29.45,-1.6472,-41.903,-62.104
27.485,86.819,59.334,-57.152,-15.924,72.841,-29.635,-40.884,-29.885,1.8592,-37.702,-66.446
19.792,80.7,60.908,-50.246,-20.558,71.606,-25.123,-36.601,-26.133,0.25901,-25.395,-65.853
4.1347,71.963,67.829,-38.049,-31.847,70.052,-12.846,-27.999,-20.209,-8.9496,-12.384,-60.832
-8.3517,67.549,75.901,-29.599,-42.126,71.658,-1.4659,-20.941,-16.03,-18.609,-4.7832,-52.473
-18.276,64.616,82.892,-23.17,-50.584,73.804,1.061,-21.165,-16.175,-23.071,-8.2757,-47.749
-13.973,66.963,80.936,-26.495,-47.455,73.899,-3.3997,-25.896,-20.289,-20.478,-20.542,-46.674
2.9152,78.062,75.147,-40.489,-36.116,77.471,-14.717,-33.875,-25.915,-11.108,-34.649,-51.972
19.112,86.095,66.983,-52.604,-23.935,76.42,-26.175,-40.941,-31.81,-3.7407,-43.138,-61.641
27.655,88.02,60.365,-57.838,-16.355,74.691,-30.225,-41.805,-33.256,-0.33039,-40.586,-66.3
23.06,84.214,61.154,-53.637,-19.047,73.813,-25.012,-38.326,-31.063,-4.4285,-29.901,-66.656
6.4218,76.911,70.489,-41.667,-32.034,73.77,-12.013,-30.114,-25.027,-12.925,-14.035,-60.941
-12.571,67.306,79.877,-27.367,-46.224,73.552,-1.7909,-23.942,-20.084,-20.408,-6.6578,-52.51
-19.657,63.72,83.377,-22.032,-51.517,73.608,0.42123,-21.943,-17.516,-22.786,-10.032,-47.57
-12.526,69.225,81.751,-28.349,-47.139,75.383,-3.7538,-26.467,-20.651,-16.65,-19.501,-48.12
2.1876,76.414,74.226,-39.301,-36.019,75.555,-17.098,-34.975,-28.075,-7.1822,-31.812,-53.117
19.911,85.207,65.297,-52.559,-22.693,75.895,-28.533,-41.988,-33.548,0.27718,-37.899,-58.988
27.615,88.734,61.119,-58.175,-16.752,75.293,-31.076,-42.294,-33.679,1.4725,-35.678,-63.861
21.797,84.534,62.737,-53.165,-20.47,74.838,-26.59,-38.832,-31.558,-3.4521,-25.954,-64.671
4.2388,76.921,72.683,-40.58,-34.222,74.818,-16.133,-33.019,-28.083,-14.68,-15.186,-60.756
-9.2677,69.846,79.114,-30.289,-44.191,74.487,-4.9202,-25.818,-24.078,-23.378,-8.0168,-53.734
-15.393,68.18,83.573,-26.394,-49.483,75.886,-0.66485,-24.108,-21.576,-24.462,-10.304,-48.026
-10.531,70.996,81.527,-30.233,-46.029,76.222,-6.1788,-27.702,-24.015,-18.968,-20.752,-48.012
3.4748,78.111,74.636,-40.793,-35.581,77.297,-16.946,-35.884,-29.957,-7.8289,-30.911,-53.216
21.704,87.072,65.368,-54.388,-21.832,77.207,-27.951,-41.989,-34.72,0.85148,-35.52,-58.73
28.004,87.324,59.32,-57.664,-15.658,74.407,-32.881,-44.237,-36.008,2.2605,-32.74,-62.425
22.321,83.193,60.872,-52.757,-19.276,72.329,-27.339,-38.698,-31.514,-0.47272,-21.637,-61.259
6.3953,75.994,69.599,-41.195,-31.602,72.703,-14.869,-31.073,-25.727,-10.879,-9.106,-54.765
-7.657,68.842,76.499,-30.592,-42.078,72.722,-5.9443,-25.919,-22.956,-20.702,-4.7452,-47.945
-14.338,67.105,81.443,-26.383,-47.891,74.239,-3.4762,-24.418,-23.219,-24.59,-8.3764,-43.556
-10.255,70.701,80.956,-30.223,-45.605,75.85,-7.8522,-29.557,-26.742,-21.349,-19.309,-44.168
5.0401,78.929,73.888,-41.984,-34.424,77.239,-20.091,-38.01,-33.039,-12.089,-31.995,-49.904
21.624,86.055,64.431,-53.84,-21.403,76.399,-30.445,-44.691,-37.563,-2.2945,-38.531,-57.602
28.525,88.448,59.923,-58.487,-15.699,74.663,-33.188,-44.312,-37.285,1.6028,-33.614,-61.585
22.831,85.402,62.571,-54.116,-19.87,73.887,-27.878,-39.558,-33.777,-1.7081,-21.47,-59.488
5.1553,76.924,71.769,-41.04,-33.307,75.19,-17.066,-31.846,-28.236,-9.936,-9.1473,-55.26
-10.723,68.952,79.674,-29.115,-45.199,74.295,-7.2675,-26.47,-24.3,-19.914,-3.547,-49.496
-16.967,68.774,85.741,-25.903,-51.354,77.257,-4.0126,-26.564,-25.196,-25.09,-7.9324,-44.98
-11.386,72.666,84.052,-30.64,-47.719,78.372,-11.714,-32.151,-29.988,-23.13,-19.384,-46.885
3.1537,81.964,78.811,-42.559,-37.828,81.199,-23.859,-41.117,-36.699,-14.199,-32.776,-53.177
19.598,89.913,70.315,-54.755,-25.359,81.322,-33.802,-46.495,-40.699,-5.3993,-38.519,-59.869
26.499,90.914,64.415,-58.707,-18.958,78.023,-36.869,-46.519,-39.843,-0.92105,-33.675,-63.001
21.416,86.623,65.207,-54.02,-21.896,76.569,-30.049,-40.754,-34.975,-3.5609,-20.81,-60.428
7.0731,78.001,70.928,-42.537,-31.927,75.481,-18.924,-32.866,-29.239,-12.009,-7.127,-53.773
-6.4579,72.029,78.486,-32.785,-42.472,75.181,-8.4684,-27.225,-26.46,-20.515,-1.6002,-46.862
-13.595,69.574,83.168,-27.99,-48.382,76.386,-5.9344,-26.445,-26.703,-25.144,-5.8555,-43.027
-7.7932,72.589,80.382,-32.398,-44.088,76.524,-10.96,-31.666,-30.297,-21.887,-17.498,-44.334
8.1194,81.052,72.932,-44.586,-32.407,76.876,-23.073,-38.05,-33.912,-9.9901,-28.931,-48.887
22.124,89.243,67.118,-55.684,-22.497,78.563,-33.378,-45.219,-37.804,-0.85741,-35.973,-55.463
28.623,92.749,64.126,-60.686,-17.751,79.053,-36.654,-46.467,-38.724,1.117,-33.6,-60.378
22.623,88.476,65.853,-55.549,-21.615,76.988,-32.019,-42.139,-36.657,-4.1624,-24.051,-60.625
8.0623,81.062,72.999,-44.562,-32.468,77.129,-20.981,-35.022,-31.093,-13.918,-12.221,-54.957
-8.2421,73.309,81.551,-32.533,-44.896,77.361,-11.346,-29.229,-26.293,-22.566,-6.5681,-47.867
-16.15,69.902,86.053,-26.876,-51.102,78.032,-7.6368,-27.982,-24.905,-24.514,-10.548,-43.546
-10.37,73.759,84.129,-31.694,-47.249,78.89,-13.817,-33.108,-30.234,-20.181,-20.58,-44.82
5.0903,82.788,77.698,-43.939,-36.304,81.111,-26.013,-42.072,-37.944,-11.912,-32.801,-50.174
19.963,88.589,68.626,-54.276,-24.332,78.489,-36.558,-47.641,-41.459,-1.5397,-37.379,-56.062
26.049,89.1,63.051,-57.574,-18.501,76.573,-38.725,-46.921,-39.181,1.7913,-33.128,-60.07
23.683,87.251,63.568,-55.467,-19.942,76.537,-32.682,-41.356,-34.633,0.32065,-21.576,-58.588
5.9995,77.318,71.318,-41.659,-32.659,74.391,-23.116,-34.831,-30.111,-9.9014,-9.1266,-55.033
-9.3211,70.953,80.274,-30.816,-44.798,75.565,-13.086,-29.462,-27.868,-20.796,-4.8517,-48.477
-15.028,71.062,86.09,-28.017,-50.559,78.651,-10.65,-29.56,-28.203,-24.489,-10.341,-44.095
-9.1647,76.684,85.849,-33.76,-47.507,81.138,-18.07,-35.175,-32.415,-22.019,-23.826,-44.571
2.1316,83.123,80.992,-42.628,-39.43,82.329,-28.949,-43.264,-39.135,-14.132,-38.022,-50.62
18.297,91.371,73.074,-54.834,-27.389,82.806,-38.47,-49.603,-43.555,-4.0473,-41.646,-57.419
27.896,94.179,66.283,-61.037,-19.194,80.714,-41.172,-49.03,-42.969,1.0544,-33.986,-60.41
22.234,89.519,67.285,-55.876,-22.526,78.864,-35.889,-42.616,-37.301,-0.83247,-20.688,-58.601
7.1903,79.999,72.808,-43.594,-32.809,77.022,-24.218,-35.004,-31.815,-10.774,-9.0545,-54.117
-10.187,69.363,79.55,-29.588,-44.868,74.563,-14.133,-30.268,-28.949,-21.961,-4.6662,-47.491
-16.291,69.932,86.223,-26.821,-51.257,78.007,-11.247,-29.089,-28.876,-24.71,-8.5956,-42.74
-7.5777,77.631,85.208,-35.026,-46.393,81.463,-17.251,-32.765,-30.877,-18.755,-17.834,-41.686
6.0934,83.24,77.147,-44.667,-35.527,80.21,-27.973,-40.813,-36.229,-9.0422,-29.954,-47.735
21.698,89.749,68.051,-55.724,-23.177,80.062,-39.957,-48.459,-41.68,-1.9634,-37.706,-56.855
28.234,91.58,63.346,-59.907,-17.556,77.942,-42.713,-50.744,-42.998,0.47254,-34.628,-62.535
24.472,91.12,66.649,-57.796,-21.088,78.777,-36.779,-45.215,-39.108,-3.207,-24.253,-61.839
5.2193,81.961,76.742,-43.59,-35.761,80.214,-26.884,-39.956,-34.841,-14.86,-14.124,-56.866
-9.8935,75.653,85.546,-32.88,-47.72,80.55,-16.321,-33.827,-31.599,-24.53,-9.3507,-49.64
-14.098,76.15,90.249,-31.026,-52.173,83.249,-12.578,-32.538,-31.243,-27.042,-12.847,-44.464
-9.6445,77.005,86.649,-33.68,-48.147,81.762,-19.523,-36.875,-34.075,-22.648,-23.806,-45.241
6.8291,84.904,78.075,-45.867,-35.623,82.429,-32.034,-43.941,-38.232,-12.061,-34.856,-49.953
21.732,91.99,70.258,-56.861,-24.263,82.1,-41.422,-49.793,-42.345,-2.5355,-39.015,-56.278
27.271,92.091,64.82,-59.681,-18.774,79.549,-44.169,-50.986,-43.257,0.16408,-32.292,-59.775
18.597,85.593,66.996,-52.095,-24.2,76.581,-38.957,-46.53,-41.059,-5.1411,-21.296,-59.584
4.1748,78.889,74.714,-41.532,-35.27,76.724,-27.009,-38.985,-34.991,-14.154,-9.1133,-53.89
-7.0457,75.701,82.747,-34.328,-44.896,79.251,-16.468,-32.917,-30.4,-22.245,-2.4047,-45.816
-13.95,74.449,88.399,-30.249,-51.174,81.429,-13.906,-31.368,-30.775,-25.664,-7.4309,-41.567
-9.5869,74.965,84.552,-32.689,-47.07,79.723,-19.027,-36.687,-34.181,-21.621,-19.515,-42.806
5.1714,82.946,77.775,-44.059,-36.302,81.238,-30.106,-43.024,-38.955,-12.089,-31.86,-48.219
20.498,89.974,69.476,-55.236,-24.489,79.565,-40.474,-48.89,-42.446,-3.3914,-38.797,-55.189
27.554,92.606,65.052,-60.08,-18.749,79.433,-43.148,-49.41,-42.822,0.70258,-34.817,-58.868
22.394,88.583,66.189,-55.488,-21.898,77.781,-37.944,-45.123,-39.269,-3.3705,-21.669,-58.456
7.2336,80.973,73.739,-44.103,-33.253,78.024,-27.701,-38.095,-33.741,-12.143,-9.2173,-53.174
-6.6914,74.77,81.462,-34.039,-44.077,78.177,-16.478,-32.039,-29.787,-21.506,-4.5324,-46.747
-15.123,71.738,86.861,-28.308,-50.992,79.279,-14.228,-31.933,-30.742,-26.198,-9.318,-43.063
-10.505,77.208,87.712,-33.351,-49.108,82.44,-20.954,-38.421,-34.875,-22.761,-22.204,-44.899
4.1165,86.918,82.802,-45.517,-39.343,84.97,-31.98,-45.121,-40.839,-13.757,-35.803,-51.873
19.525,94.072,74.547,-56.798,-27.511,85.305,-42.872,-50.82,-43.428,-4.7132,-40.262,-58.232
26.807,96.413,69.606,-61.61,-21.4,84.089,-45.756,-51.509,-43.772,-1.3736,-36.687,-61.907
24.009,93.491,69.482,-58.75,-22.736,81.786,-39.774,-46.436,-40.927,-5.3406,-25.039,-60.811
8.2589,83.859,75.6,-46.059,-33.67,79.636,-28.211,-38.997,-35.965,-15.822,-11.824,-54.138
-9.1116,73.55,82.661,-32.219,-45.886,78.154,-18.285,-34.372,-32.493,-24.385,-5.5555,-46.373
-16.015,70.555,86.57,-27.27,-51.293,78.533,-14.319,-32.555,-30.158,-25.03,-7.8046,-39.892
-10.355,73.615,83.97,-31.63,-47.163,78.812,-18.944,-36.279,-31.881,-19.323,-18.187,-40.702
4.9123,81.982,77.069,-43.447,-36.079,80.314,-30.99,-45.063,-38.838,-11.098,-31.961,-48.877
20.684,90.363,69.679,-55.523,-24.497,80.028,-41.714,-50.702,-43.89,-2.5033,-38.591,-55.132
27.069,93.521,66.452,-60.295,-19.692,79.982,-45.366,-52.036,-44.36,0.04435,-35.73,-59.357
20.652,90.4,69.748,-55.526,-24.548,80.076,-39.155,-47.513,-40.756,-4.361,-24.617,-59.545
5.0323,81.916,76.884,-43.474,-35.926,80.199,-27.9,-40.756,-35.239,-14.93,-12.942,-55.006
-9.3624,75.233,84.595,-32.935,-46.979,79.914,-17.286,-34.141,-31.21,-24.319,-6.1872,-47.338
-14.916,73.71,88.625,-29.397,-51.77,81.167,-13.687,-33.555,-30.136,-25.776,-8.0988,-41.322
-9.3708,76.542,85.912,-33.585,-47.642,81.226,-19.768,-38.505,-33.746,-23.028,-20.096,-42.915
5.0516,85.057,80.005,-45.054,-37.477,83.334,-32.873,-46.96,-40.873,-15.903,-33.017,-48.975
20.572,93.141,72.568,-56.857,-25.998,82.851,-42.446,-52.768,-44.484,-6.5721,-38.318,-55.307
27.787,95.278,67.491,-61.532,-19.852,81.39,-45.241,-53.734,-44.475,-3.551,-34.248,-60.656
24.475,93.261,68.786,-58.868,-22.156,81.015,-39.245,-46.94,-39.362,-6.5551,-21.834,-59.094
7.0805,83.849,76.768,-45.465,-34.844,81.122,-26.95,-38.914,-33.89,-16.042,-9.0908,-52.99
-8.3855,73.678,82.064,-32.646,-45.225,77.852,-16.426,-33.042,-30.555,-26.704,-4.6817,-46.809
-16.535,69.97,86.505,-26.717,-51.52,78.267,-14.344,-33.112,-30.597,-30.651,-8.8199,-43.094
-12.043,73.199,85.242,-30.578,-48.642,79.166,-20.216,-37.947,-34.969,-26.696,-20.52,-44.242
5.1109,82.994,77.883,-44.052,-36.386,81.388,-30.893,-44.937,-39.95,-16.069,-31.85,-49.043
21.863,91.272,69.409,-56.568,-23.773,81.146,-40.699,-50.6,-43.556,-6.4904,-36.553,-55.055
29.279,92.407,63.128,-60.843,-16.925,77.533,-44.38,-50.737,-43.277,-3.9544,-33.68,-59.762
21.965,88.817,66.852,-55.391,-22.444,78.632,-38.131,-47.34,-39.785,-8.3741,-23.279,-61.364
4.0711,82.1,78.029,-43.086,-36.979,80.23,-26.132,-39.993,-35.898,-18.904,-12.131,-57.049
-11.404,74.975,86.379,-31.786,-48.891,80.595,-16.334,-35.45,-32.756,-28.494,-6.3139,-49.427
-16.967,74.393,91.36,-28.713,-54.164,82.951,-14.827,-35.674,-33.806,-31.399,-9.782,-45.098
-10.707,76.853,87.56,-33.073,-49.134,82.109,-21.357,-39.884,-37.254,-28.548,-21.511,-45.615
5.0725,85.883,80.811,-45.478,-37.869,84.347,-30.952,-45.941,-40.899,-17.049,-32.874,-49.836
21.9,94.049,72.148,-57.974,-25.124,83.833,-40.674,-50.797,-43.525,-5.1924,-35.901,-56.345
29.253,94.384,65.131,-61.818,-17.939,79.652,-44.419,-51.56,-43.272,-1.4201,-29.382,-59.446
22.515,89.573,67.058,-56.044,-22.272,78.357,-38.065,-46.345,-39.824,-5.2556,-18.179,-57.585
6.2756,80.847,74.571,-43.561,-34.148,77.7,-27.055,-39.15,-34.976,-16.814,-7.2196,-53.121
-11.32,73.054,84.374,-30.867,-47.847,78.696,-15.989,-34.077,-31.788,-26.605,-2.4081,-46.483
-17.001,72.596,89.597,-27.797,-53.299,81.146,-13.845,-33.685,-32.401,-28.611,-5.3298,-42.011
-10.179,77.516,87.695,-33.668,-48.937,82.507,-19.644,-37.748,-34.986,-23.392,-16.277,-43.279
4.1683,84.281,80.113,-44.225,-37.972,82.428,-29.862,-45.146,-40.925,-15.136,-30.761,-48.882
21.494,92.001,70.506,-56.748,-24.506,81.9,-41.847,-51.548,-44.482,-7.485,-37.773,-56.548
27.188,94.469,67.281,-60.829,-20.046,81.234,-43.098,-51.542,-44.427,-2.8793,-33.914,-61.024
23.314,91.412,68.098,-57.363,-22.392,80.968,-36.676,-45.641,-39.998,-5.5592,-19.949,-59.687
7.0872,82.847,75.76,-44.967,-34.336,80.103,-27.049,-38.995,-35.11,-15.777,-7.9923,-54.193
-11.164,73.761,84.925,-31.299,-48.044,79.379,-17.268,-33.901,-31.153,-25.85,-3.6914,-47.464
-17.6,72.18,89.78,-27.29,-53.69,80.944,-13.449,-32.518,-30.661,-29.076,-7.8532,-43.027
-11.112,75.081,86.193,-31.984,-48.653,80.673,-17.128,-36.832,-34.221,-25.238,-19.438,-44.265
1.9892,80.969,78.979,-41.479,-38.495,79.931,-30.032,-44.941,-39.833,-16.994,-31.886,-49.907
19.208,88.276,69.068,-53.742,-24.93,78.731,-42.802,-51.828,-44.823,-7.5031,-37.55,-57.516
27.91,92.16,64.25,-60.035,-18.17,78.093,-46.407,-53.039,-45.878,-4.9256,-34.807,-62.102
25.02,93.419,68.399,-59.22,-21.69,81.638,-39.462,-47.854,-42.247,-9.4469,-22.946,-60.015
9.2253,87.037,77.812,-48.131,-34.293,83.442,-27.033,-39.847,-35.969,-18.075,-9.9774,-54.037
-6.7993,77.454,84.253,-35.327,-45.526,80.725,-17.251,-34.185,-32.645,-27.522,-4.506,-47.646
-14.885,74.987,89.872,-30.051,-52.379,82.554,-14.124,-33.578,-31.802,-29.696,-7.2178,-42.463
-7.1992,79.429,86.628,-36.115,-46.914,82.868,-20.95,-37.876,-33.879,-23.754,-18.449,-43.228
7.1847,87.096,79.911,-47.14,-36.363,84.596,-32.897,-45.775,-40.107,-14.011,-29.93,-48.809
19.348,92.812,73.464,-56.08,-27.058,83.709,-42.334,-51.837,-44.258,-5.6783,-35.663,-55.524
28.743,95.767,67.025,-62.255,-19.141,81.886,-43.531,-50.731,-43.261,-2.3915,-32.229,-60.004
24.594,90.848,66.254,-57.721,-20.83,79.009,-37.877,-46.128,-39.138,-6.341,-20.533,-58.758
8.0136,82.822,74.809,-45.418,-33.397,78.637,-26.987,-39.038,-33.927,-15.987,-8.11,-52.993
-10.088,75.867,85.955,-32.89,-48.021,81.014,-17.575,-33.179,-30.584,-25.576,-2.5863,-45.777
-16.727,74.465,91.192,-28.869,-53.959,82.763,-14.778,-32.099,-30.234,-27.592,-6.8529,-41.721
-9.36,79.52,88.88,-35.08,-49.12,84.241,-20.752,-36.363,-33.099,-22.461,-19.057,-41.967
3.1256,88.059,84.933,-45.592,-40.904,87.271,-32.997,-45.039,-38.778,-13.917,-32.915,-49.067
19.005,96.017,77.012,-57.511,-29.003,86.528,-42.405,-50.571,-41.479,-4.468,-36.9,-55.925
28.15,98.844,70.694,-63.497,-21.272,84.763,-45.247,-50.392,-41.453,0.19347,-30.451,-58.907
24.142,97.206,73.064,-60.674,-24.461,85.135,-39.258,-45.497,-36.405,-3.2754,-18.522,-57.119
9.1762,89.861,80.685,-49.519,-35.755,86.078,-26.136,-37.094,-30.002,-12.144,-5.3607,-50.901
-8.2669,81.791,90.057,-36.762,-49.162,85.915,-17.825,-32.41,-27.878,-21.594,-0.32684,-43.75
-16.577,80.48,97.057,-31.952,-56.817,88.783,-15.975,-32.668,-28.346,-25.671,-3.7297,-40.166
-12.058,85.568,97.627,-36.755,-54.843,91.569,-20.984,-37.45,-31.014,-22.26,-16.118,-41.118
1.9613,93.934,91.973,-47.948,-45.006,93.047,-32.953,-45.955,-36.93,-14.051,-29.897,-47.988
20.347,102.42,82.077,-61.386,-30.865,93.295,-42.381,-50.443,-40.302,-4.2472,-35.361,-54.973
28.193,105.41,77.213,-66.799,-24.51,92.274,-45.582,-50.902,-39.145,-0.49085,-31.224,-57.878
21.652,103.66,82.01,-62.657,-30.179,93.884,-41.714,-46.593,-35.877,-3.5466,-18.856,-56.132
5.1068,98.175,93.068,-51.641,-43.981,96.51,-31.069,-39.719,-30.089,-13.033,-5.992,-49.907
-9.2986,92.984,102.28,-41.843,-55.791,97.614,-21.44,-34.509,-25.199,-20.96,0.69792,-42.6
-15.394,90.646,106.04,-37.626,-60.717,98.342,-19.317,-34.585,-24.147,-24.251,-2.8048,-37.535
-10.493,92.988,103.48,-41.248,-56.986,98.248,-25.799,-39.544,-27.709,-23.431,-14.431,-38.092
4.117,99.084,94.967,-51.601,-45.425,96.995,-38.949,-47.853,-35.014,-14.827,-27.819,-44.937
21.029,107.25,86.221,-64.14,-32.596,96.791,-49.493,-54.107,-40.764,-6.8663,-34.603,-52.228
30.186,108.79,78.606,-69.49,-24.21,93.584,-52.218,-55.716,-41.944,-2.8372,-29.58,-56.008
25.532,106.13,80.594,-65.829,-27.531,94.102,-46.26,-49.645,-38.153,-6.2773,-17.467,-54.037
8.2558,96.95,88.694,-52.603,-40.219,93.013,-34.772,-41.928,-32.965,-15.919,-4.3916,-48.897
-7.7623,86.572,94.334,-39.405,-51.048,90.366,-23.135,-34.829,-29.361,-24.768,0.69497,-42.717
-13.959,83.14,97.099,-34.591,-55.529,90.179,-18.049,-33.456,-28.014,-30.264,-2.7432,-37.376
-8.3646,85.412,93.777,-38.524,-51.071,89.538,-23.767,-38.575,-31.879,-27.367,-15.112,-38.888
6.9443,94.169,87.225,-50.557,-40.14,91.607,-35.133,-46.036,-37.834,-17.272,-28.888,-45.006
23.843,101.88,78.036,-62.861,-27.097,90.994,-45.63,-51.709,-41.902,-7.0873,-34.49,-51.251
29.799,102.53,72.727,-66.162,-21.464,88.592,-49.717,-53.364,-44.49,-4.3092,-32.183,-57.034
25.181,97.413,72.232,-61.297,-23.526,85.876,-45.633,-50.415,-41.904,-9.6443,-21.827,-56.97
9.1697,89.924,80.755,-49.547,-35.792,86.215,-35.109,-42.885,-37.045,-18.75,-8.0216,-50.862
-6.5789,81.552,88.131,-37.486,-47.355,84.844,-23.932,-37.291,-33.309,-29.106,-1.408,-42.539
-13.938,79.005,92.943,-32.534,-53.44,85.939,-19.659,-35.998,-32.06,-33.258,-4.2938,-37.594
-9.0694,82.762,91.831,-36.846,-50.45,87.367,-25.186,-40.495,-35.829,-28.513,-15.352,-37.494
9.9637,90.831,80.867,-50.397,-35.452,85.713,-36.808,-47.939,-41.912,-19.019,-28.757,-42.739
26.779,96.991,70.212,-61.885,-21.717,83.996,-49.408,-52.925,-45.658,-8.0686,-34.701,-49.551
34.86,99.566,64.707,-67.213,-14.924,82.746,-54.478,-55.231,-47.027,-2.8518,-31.227,-53.992
27.341,95.673,68.332,-61.507,-20.495,81.831,-48.168,-49.781,-43.069,-5.5596,-19.508,-52.743
10.723,86.905,76.183,-48.814,-32.73,82.439,-36.811,-41.878,-38.117,-14.961,-7.1623,-47.064
-4.5111,78.381,82.892,-36.935,-43.701,80.572,-26.671,-37.578,-35.463,-26.124,-1.4857,-40.968
-13.423,72.233,85.656,-29.405,-49.539,78.994,-23.062,-37.187,-35.781,-32.408,-6.0669,-38.349
-6.4229,74.588,81.011,-34.083,-43.717,77.748,-25.437,-40.723,-39.123,-28.629,-16.594,-38.432
10.378,82.919,72.541,-46.648,-31.082,77.839,-35.943,-47.173,-44.985,-18.222,-29.914,-43.063
24.975,91.531,66.556,-58.253,-20.79,80.074,-46.857,-53.884,-49.327,-7.9577,-37.568,-50.314
29.928,93.661,63.733,-61.795,-16.902,79.676,-49.566,-54.173,-48.224,-3.3875,-32.984,-55.976
23.772,87.875,64.103,-55.823,-20.165,77.015,-40.509,-47.489,-44.158,-6.5797,-22.256,-56.539
5.2385,76.03,70.791,-40.634,-32.776,74.331,-27.167,-40.166,-38.073,-16.969,-11.163,-53.056
-11.747,68.423,80.17,-28.338,-45.959,74.227,-15.633,-33.394,-32.834,-27.36,-5.1188,-47.502
-16.132,70.028,86.159,-26.948,-51.145,78.173,-8.3669,-29.732,-29.358,-28.816,-7.2274,-40.902
-11.199,73.551,84.75,-31.176,-47.975,79.033,-13.717,-34.568,-32.803,-25.381,-18.332,-41.051
4.9764,82.127,77.15,-43.552,-36.087,80.681,-26.012,-42.066,-38.951,-16.058,-31.923,-47.109
21.38,88.538,67.158,-54.959,-22.889,78.488,-36.699,-48.87,-43.91,-6.2944,-39.897,-54.059
27.427,88.54,61.112,-57.984,-16.843,75.191,-40.635,-49.827,-46.501,-2.6829,-38.198,-58.824
21.82,82.719,60.899,-52.27,-19.539,73.017,-36.752,-46.346,-43.877,-8.2524,-27.878,-59.695
5.9595,74.024,68.064,-39.992,-31.052,71.049,-25.023,-37.987,-39.045,-17.046,-13.063,-54.902
-9.8558,65.35,75.206,-27.747,-42.531,70.304,-13.148,-31.094,-34.088,-26.876,-6.6294,-47.596
-17.206,63.982,81.188,-23.388,-49.197,72.564,-9.7991,-30.502,-33.72,-31.829,-10.459,-42.536
-11.165,68.993,80.159,-28.914,-45.662,74.589,-15.111,-36.19,-37.151,-27.571,-21.224,-43.109
2.0121,75.979,73.967,-38.995,-35.977,74.965,-26.792,-44.269,-42.946,-18.041,-34.957,-49.061
19.225,84.159,64.935,-51.692,-22.855,74.549,-36.793,-50.562,-47.506,-8.3265,-41.461,-56.145
27.314,86.1,58.787,-56.707,-15.737,72.445,-40.211,-50.4,-47.821,-4.3433,-37.068,-60.399
20.504,80.897,60.394,-50.7,-19.945,70.64,-34.954,-45.491,-44.23,-8.3271,-25.655,-59.914
4.2706,70.073,65.803,-37.172,-30.766,67.947,-23.006,-37.921,-38.862,-18.083,-12.929,-53.945
-13.42,60.283,73.703,-23.431,-43.562,66.979,-12.358,-32.247,-34.296,-28.703,-6.658,-46.614
-20.755,59.265,80.02,-19.255,-50.387,69.662,-8.175,-31.056,-33.13,-32.631,-10.437,-41.479
-13.447,66.593,80.04,-26.573,-46.744,73.285,-13.716,-35.4,-36.148,-28.745,-21.251,-42.21
1.0934,73.16,72.067,-37.127,-35.487,73.467,-25.14,-43.148,-41.782,-17.931,-34.901,-47.874
19.185,82.486,63.301,-50.835,-22.058,72.785,-35.69,-48.635,-45.763,-7.5337,-41.691,-55.617
27.748,85.029,57.281,-56.389,-14.766,71.644,-39.3,-50.162,-46.903,-4.55,-38.283,-59.861
21.693,81.251,59.558,-51.472,-18.933,71.545,-33.848,-44.754,-43.25,-7.5748,-25.872,-59.522
5.1482,72.183,67.034,-38.665,-30.943,70.463,-22.995,-36.953,-36.892,-17.793,-12.104,-54.008
-10.927,63.467,74.394,-26.27,-42.661,68.914,-12.244,-30.904,-32.567,-27.808,-6.6129,-46.841
-18.216,61.005,79.221,-21.394,-48.718,70.137,-8.6988,-29.413,-32.169,-31.166,-10.829,-42.555
-11.546,65.339,76.885,-26.897,-44.215,71.061,-14.779,-34.588,-35.785,-26.548,-23.081,-43.815
3.075,75.097,72.022,-39.086,-34.474,74.506,-27.021,-42.892,-41.922,-17.018,-36.094,-50.051
19.974,84.161,64.187,-52.068,-22.107,74.984,-37.695,-48.82,-45.677,-7.492,-42.52,-57.482
27.116,86.055,58.939,-56.585,-15.912,72.255,-41.39,-49.941,-46.971,-4.9479,-39.836,-62.028
21.261,81.53,60.27,-51.396,-19.504,71.71,-35.12,-45.605,-43.184,-9.3973,-27.924,-60.758
6.2218,73.058,66.836,-39.64,-30.307,70.093,-23.959,-37.844,-36.184,-18.998,-14.189,-54.176
-10.161,65.612,75.773,-27.725,-42.967,70.642,-13.172,-32.32,-32.287,-28.615,-9.6193,-47.819
-18.754,62.91,81.664,-22.078,-50.209,72.312,-10.208,-30.966,-31.047,-32.776,-13.935,-43.65
-12.696,67.425,80.122,-27.365,-46.409,73.756,-16.298,-35.527,-34.874,-27.962,-24.79,-44.098
3.8788,76.924,73.045,-40.401,-34.583,75.041,-27.707,-42.153,-39.192,-17.044,-35.831,-49.15
19.746,83.871,64.126,-51.808,-22.19,75.133,-39.081,-48.993,-43.535,-8.652,-41.72,-56.198
25.641,84.886,59.244,-55.264,-16.802,72.564,-41.207,-48.918,-43.282,-5.4745,-37.93,-59.934
18.419,81.251,62.832,-49.835,-22.206,71.914,-34.678,-44.014,-39.797,-8.6501,-23.963,-58.774
4.1915,74.014,69.823,-39.103,-32.816,72.004,-24.062,-37.131,-35.033,-17.818,-11.055,-53.005
-9.7676,66.626,76.393,-28.429,-43.08,71.427,-13.341,-31.068,-31.546,-26.657,-5.5003,-45.711
-17.692,63.889,81.58,-23.098,-49.636,72.834,-11.399,-30.559,-31.202,-30.667,-10.391,-42.155
-11.744,68.471,80.215,-28.363,-45.979,74.198,-17.177,-35.571,-34.737,-26.685,-22.526,-43.184
4.1176,76.988,72.871,-40.553,-34.377,75.211,-28.764,-42.958,-40.221,-16.908,-34.855,-48.989
19.303,84.02,64.717,-51.662,-22.707,74.946,-38.828,-48.951,-44.245,-7.6408,-40.423,-56.265
25.358,86.506,61.148,-55.932,-17.895,74.313,-41.878,-49.025,-43.203,-4.4205,-36.133,-59.9
20.582,82.774,62.192,-51.678,-20.805,72.943,-35.004,-43.275,-39.809,-8.306,-24.524,-58.78
2.4019,72.848,70.446,-37.625,-34.022,71.467,-24.874,-36.14,-34.238,-18.026,-13.047,-53.918
-12.732,65.118,77.85,-26.193,-45.291,71.587,-14.252,-31.169,-30.166,-27.62,-7.4814,-47.926
-18.721,64.462,83.183,-22.87,-50.952,73.757,-10.771,-30.187,-29.259,-31.712,-12.453,-43.582
-10.733,70.275,81.008,-29.771,-45.871,75.683,-16.085,-33.651,-31.98,-27.628,-23.896,-44.155
3.9835,78.051,74.067,-41.017,-35.042,76.032,-28.722,-41.953,-38.097,-18.042,-34.747,-49.88
18.648,83.957,65.309,-51.303,-23.33,74.652,-38.75,-47.737,-42.174,-9.6313,-39.445,-56.441
24.947,86.44,61.493,-55.694,-18.273,73.95,-42.351,-49.075,-41.748,-6.4948,-35.074,-61.142
20.009,84.031,64.022,-52.02,-22.006,74.045,-36.151,-43.855,-38.247,-9.6244,-23.632,-59.004
6.1323,77.017,70.885,-41.575,-32.376,73.924,-24.128,-35.808,-32.866,-18.913,-11.008,-52.967
-8.5702,69.739,78.31,-30.585,-43.44,74.066,-14.209,-30.272,-28.247,-28.582,-5.8432,-45.709
-15.523,66.349,81.871,-25.413,-48.697,74.045,-11.134,-29.374,-27.512,-30.924,-11.078,-42.212
-10.389,70.448,80.837,-30.029,-45.613,75.746,-17.97,-35.319,-31.993,-27.386,-21.708,-42.537
4.009,78.083,74.074,-41.046,-35.033,75.898,-29.834,-43.023,-36.961,-17.105,-32.854,-47.747
21.1,86.307,65.206,-53.704,-22.053,76.217,-39.603,-47.532,-40.509,-7.5693,-37.361,-54.512
27.588,87.335,59.747,-57.461,-16.079,74.028,-41.649,-47.394,-40.392,-4.4464,-33.144,-59.099
21.202,83.944,62.743,-52.573,-20.771,73.918,-35.816,-42.519,-36.044,-8.3153,-21.551,-57.021
6.1483,75.955,69.806,-41.052,-31.829,73.167,-24.99,-34.847,-31.028,-17.978,-9.1605,-51.013
-9.5587,67.08,76.639,-28.761,-43.099,71.705,-14.387,-29.501,-27.432,-27.74,-4.7924,-44.812
-14.71,67.995,82.704,-26.642,-48.707,75.464,-12.363,-29.491,-27.771,-31.191,-10.477,-41.069
-10.176,70.983,81.159,-30.404,-45.668,75.965,-18.218,-35.298,-31.169,-26.562,-22.521,-42.297
4.0981,77.956,73.857,-41.027,-34.88,76.029,-28.838,-42.123,-36.004,-16.124,-34.784,-46.945
20.695,85.137,64.442,-52.916,-21.873,74.599,-37.462,-46.678,-39.22,-6.4708,-39.233,-53.258
26.768,86.689,59.922,-56.729,-16.577,73.93,-40.131,-47.947,-38.606,-3.9358,-33.803,-56.848
18.646,81.207,62.561,-49.926,-21.957,72.263,-34.988,-44.263,-36.05,-8.4493,-23.533,-55.906
5.0722,76.085,71.013,-40.579,-32.97,74.235,-22.963,-36.049,-29.928,-17.808,-9.9277,-48.945
-8.977,70.366,79.343,-30.694,-44.16,74.892,-12.655,-29.167,-25.675,-25.541,-4.1558,-42.107
-17.533,64.988,82.521,-23.727,-50.027,73.769,-11.488,-30.282,-26.884,-29.816,-9.724,-38.733
-9.6955,70.243,79.938,-30.274,-44.817,75.014,-17.12,-34.901,-30.132,-24.935,-19.527,-39.086
5.0425,79.871,74.828,-42.457,-34.893,78.365,-28.84,-41.052,-34.949,-14.018,-30.941,-44.069
22.063,88.534,66.471,-55.298,-22.204,78.162,-38.574,-46.64,-37.15,-4.4921,-35.335,-50.168
28.677,90.664,61.986,-59.67,-16.655,76.672,-40.69,-46.278,-36.655,-1.9728,-31.098,-53.921
21.509,85.381,63.872,-53.445,-21.182,75.855,-34.744,-42.201,-33.995,-6.3302,-20.215,-52.821
5.1865,77.098,71.912,-41.142,-33.363,75.283,-24.965,-35.877,-28.851,-16.944,-8.2771,-46.911
-10.611,69.793,80.405,-29.591,-45.508,75.167,-14.157,-30.27,-24.555,-25.07,-2.2384,-39.899
-15.301,68.175,83.475,-26.437,-49.388,75.74,-11.186,-29.016,-24.204,-27.504,-5.8361,-35.507
-9.9077,71.083,80.99,-30.587,-45.449,76.153,-17.913,-33.47,-27.71,-23.697,-17.439,-36.863
2.8722,77.754,74.882,-40.313,-36.005,76.931,-29.078,-40.999,-33.275,-14.861,-29.852,-42.112
19.335,84.492,65.157,-51.914,-22.911,75.29,-38.176,-45.558,-37.129,-5.3622,-34.135,-48.155
29.02,88.886,59.866,-58.953,-15.423,74.856,-40.046,-45.324,-36.7,-1.6742,-28.944,-51.899
21.858,83.832,61.974,-52.845,-20.058,73.488,-34.997,-41.182,-33.924,-7.2153,-18.286,-51.415
4.3842,74.992,70.608,-39.688,-33.112,73.068,-23.064,-34.011,-28.963,-17.761,-7.9211,-46.235
-11.061,68.872,79.933,-28.905,-45.497,74.279,-13.529,-28.325,-24.322,-25.499,-2.7848,-39.651
-17.647,64.982,82.629,-23.668,-50.138,73.87,-10.873,-28.777,-25.226,-30.199,-8.4994,-36.257
-11.091,66.959,78.05,-27.934,-44.57,72.477,-16.046,-32.751,-29.356,-26.758,-20.468,-36.486
1.9847,73.893,71.908,-37.939,-34.962,72.897,-27.101,-39.259,-33.827,-16.957,-32.908,-41.873
19.233,82.742,63.509,-50.988,-22.138,73.162,-37.498,-46.888,-38.97,-8.5866,-38.236,-49.391
27.349,86.168,58.818,-56.759,-15.734,72.394,-39.829,-47.506,-38.973,-3.4176,-32.557,-52.445
19.859,82.151,62.291,-51.005,-21.216,72.944,-32.976,-42.389,-33.846,-4.8269,-19.884,-50.03
4.0587,75.05,70.991,-39.554,-33.466,73.239,-23.014,-35.915,-30.11,-12.064,-6.0334,-43.039
-9.5111,67.568,77.079,-29.028,-43.295,72.195,-13.186,-30.105,-28.847,-23.133,-0.97674,-35.732
-18.425,62.772,81.196,-22.173,-49.811,72.109,-10.267,-29.943,-32.183,-29.534,-7.97,-32.086
-11.939,65.838,77.778,-26.95,-44.859,71.647,-15.654,-35.817,-38.956,-29.526,-21.846,-33.838
3.0062,70.803,67.797,-36.905,-32.395,70.394,-24.747,-41.8,-43.837,-24.02,-37.813,-41.042
17.893,74.113,56.219,-46.003,-19.163,65.733,-33.624,-45.833,-47.946,-16.986,-44.505,-48.012
24.748,77.369,52.621,-51.058,-13.936,65.491,-35.323,-46.467,-50.385,-16.906,-40.062,-50.739
18.005,71.755,53.75,-44.88,-17.872,63.199,-27.303,-41.505,-48.596,-23.991,-28.637,-49.95
4.3754,62.161,57.786,-33.268,-26.705,59.813,-15.841,-32.997,-45.836,-35.716,-16.051,-42.941
-10.059,55.659,65.719,-22.8,-37.889,60.763,-5.4056,-27.327,-42.743,-46.178,-12.093,-36.052
-18.901,47.877,66.778,-14.488,-42.84,57.308,-1.1875,-25.551,-44.094,-52.496,-18.562,-33.148
-11.93,48.051,59.981,-18.06,-35.956,53.98,-6.6662,-29.883,-50.881,-53.151,-30.489,-34.317
3.2907,58.459,55.168,-30.875,-25.939,57.773,-20.773,-40.254,-62.041,-49.147,-42.631,-37.832
22.385,68.1,45.715,-45.243,-11.665,57.671,-30.841,-46.603,-68.866,-41.462,-43.488,-40.738
32.195,70.213,38.017,-51.204,-2.9109,53.986,-36.622,-48.825,-72.608,-39.606,-33.949,-41.437
28.14,64.851,36.711,-46.496,-4.2855,50.847,-35.23,-47.749,-75.023,-48.331,-18.835,-37.134
14.081,55.996,41.916,-35.038,-13.918,48.917,-26.178,-42.36,-75.007,-63.209,-5.3359,-29.076
-0.65271,40.813,41.466,-20.08,-21.059,41.164,-12.986,-34.387,-72.862,-80.317,-5.7449,-23.512
-9.2748,11.714,20.989,-1.2194,-15.132,16.336,1.0922,-18.967,-59.821,-79.747,-16.866,-27.892
-3.1288,-10.686,-7.5574,6.9075,2.2143,-9.1134,8.4011,-8.5662,-47.732,-74.677,-41.035,-39.937
13.251,-29.877,-43.128,8.3129,28.19,-36.506,10.128,-0.0098174,-37.085,-66.252,-69.953,-57.767
29.645,-50.69,-80.335,10.522,54.99,-65.513,14.767,9.5031,-26.863,-58.57,-91.598,-78.139
35.751,-66.087,-101.84,15.168,68.795,-83.959,16.693,12.942,-27.955,-65.993,-100.46,-91.86
27.777,-84.945,-112.72,28.584,70.249,-98.836,27.28,21.918,-20.801,-70.786,-93.347,-95.763
11.206,-106.68,-117.89,47.737,64.546,-112.32,45.973,37.068,-7.1146,-73.785,-82.003,-94.1
-3.6481,-126.2,-122.56,64.926,59.454,-125.53,60.825,49.086,2.5863,-78.398,-78.514,-91.984
-10.35,-142.12,-131.77,76.235,60.71,-137.42,70.97,55.702,2.1689,-88.803,-93.181,-96.732
-6.2362,-145.8,-139.57,76.02,66.666,-142.59,70.377,54.755,-0.51061,-94.981,-117.21,-105.32
8.9711,-138,-146.98,64.517,77.973,-142.52,60.986,50.78,-0.73048,-84.113,-131.81,-113.06
24.409,-124.59,-149,50.09,86.704,-136.79,51.596,45.469,-2.2233,-71.987,-135.26,-121.62
29.962,-117.26,-147.23,43.651,88.594,-132.22,49.002,48.289,3.9368,-64.338,-129.16,-125.92
23.699,-119,-142.7,47.652,83.201,-130.92,57.987,59.339,21.842,-59.517,-115.78,-125.5
8.0404,-126.75,-134.79,59.355,71.416,-130.64,72.953,72.944,40.1,-59.745,-101.17,-120.12
-6.6735,-137.36,-130.69,72.019,62.008,-134.42,85.402,86.549,57.487,-61.635,-94.79,-115.45
-14.892,-139.48,-124.59,77.187,54.85,-132.65,91.96,93.262,72.138,-59.793,-102,-115.03
-7.3173,-126.05,-118.73,66.682,55.706,-122.21,84.014,92.643,86.884,-44.089,-111.29,-116.1
10.126,-112.87,-123,51.374,66.563,-118.04,75.966,95.246,106.44,-25.705,-122.52,-123.02
24.045,-103.5,-127.54,39.725,75.793,-115.44,68.625,100.09,123.31,-10.322,-126,-131.2
28.829,-96.177,-125.01,33.674,76.917,-110.66,71.457,114.76,148.94,0.82082,-116.94,-132.93
23.467,-92.936,-116.4,34.734,69.935,-104.59,85.567,132.22,171.04,3.419,-102,-129.89
6.2586,-92.999,-99.257,43.37,52.759,-96.291,97.016,137.23,177.27,0.11206,-86.148,-123.18
-12.783,-91.975,-79.192,52.379,33.203,-86.381,110.8,141.48,171.53,-11.467,-78.748,-115.66
-25.468,-91.291,-65.823,58.379,20.181,-78.326,121.38,139.44,137.05,-31.983,-88.785,-114.51
-21.526,-82.688,-61.162,52.107,19.814,-72.722,122.14,132.68,99.658,-42.512,-102.87,-114.96
-8.0111,-68.078,-60.067,38.045,26.035,-64.236,114.19,122.34,67.237,-42.061,-113.76,-118.01
1.382,-54.344,-55.726,26.481,28.544,-54.957,109.19,112.8,46.774,-40.968,-119.68,-123.66
4.2392,-42.79,-47.029,19.275,25.649,-44.978,105.85,101.78,32.174,-43.704,-113.98,-123.44
-1.7232,-34.213,-32.49,17.968,15.358,-33.263,104.89,93.966,22.044,-50.37,-96.98,-117.36
-15.987,-31.882,-15.895,23.934,0.0086981,-24.073,105.9,90.045,15.053,-59.093,-77.924,-103.91
-31.654,-31.056,0.59818,31.355,-16.361,-15.987,104.85,85.986,8.1252,-65.57,-65.321,-90.565
-35.647,-14.247,21.399,24.947,-29.73,3.7209,100.02,78.486,8.6878,-60.386,-60.723,-77.787
-26.025,6.6678,32.693,9.6788,-29.594,19.57,84.272,65.381,7.7778,-45.345,-60.431,-68.536
-8.1395,24.9,33.039,-8.3802,-20.535,29.151,61.096,46.97,0.30241,-29.108,-64.799,-68.111
7.7438,43.077,35.333,-25.41,-13.82,39.995,40.235,30.1,-5.1454,-15.385,-62.943,-68.76
16.151,50.933,34.781,-33.542,-9.2999,42.622,26.744,19.494,-6.9836,-6.3377,-51.332,-67.373
11.395,52.948,41.554,-32.171,-15.089,48.066,22.15,15.141,-3.2077,-5.286,-35.236,-61.831
-2.0435,52,54.043,-24.978,-28.037,53.149,22.881,15.008,2.1706,-10.952,-19.053,-52.815
-17.888,50.028,67.916,-16.07,-42.906,58.957,24.053,13.152,6.2863,-15.486,-9.8555,-43.127
-22.687,54.459,77.146,-15.886,-49.914,65.768,18.275,4.882,4.8717,-15.812,-10.562,-35.752
-13.635,61.218,74.853,-23.791,-44.246,68.12,3.9403,-7.6582,-0.71289,-11.704,-21.448,-36.218
2.8998,72.154,69.254,-37.527,-33.176,71.337,-10.892,-18.896,-6.921,-1.0682,-31.845,-40.859
18.422,80.803,62.381,-49.613,-21.98,72.044,-23.336,-27.704,-12.036,7.3645,-35.428,-46.219
24.29,82.732,58.442,-53.511,-17.076,71.08,-28.868,-31.546,-13.97,10.547,-30.28,-49.544
19.62,81.25,61.629,-50.435,-21.005,72.01,-24.579,-29.005,-10.803,7.3184,-16.601,-46.933
3.0901,74.804,71.714,-38.947,-34.312,74.348,-15.116,-22.976,-5.2861,-0.060044,-3.294,-40.136
-11.459,67.97,79.429,-28.255,-45.444,73.544,-6.6815,-18.717,-2.4469,-8.394,1.3685,-32.447
-18.67,66.019,84.688,-23.675,-51.679,75.468,-5.8543,-19.726,-2.6763,-11.126,-2.4544,-27.952
-12.641,69.792,82.433,-28.576,-47.537,76.007,-12.978,-25.04,-6.8762,-6.5312,-13.235,-29.954
2.0543,77.856,75.802,-39.955,-36.874,76.951,-24.907,-35.113,-12.977,1.2463,-26.844,-35.977
19.249,86.671,67.423,-52.96,-24.087,76.858,-35.853,-40.417,-17.619,10.313,-31.108,-42.161
26.919,90.369,63.45,-58.644,-18.266,77.53,-38.871,-40.957,-17.231,13.613,-25.969,-46.015
18.703,84.713,66.01,-51.708,-23.653,75.748,-32.003,-36.51,-13.824,9.6651,-15.253,-44.074
2.2779,76.071,73.793,-39.175,-35.758,74.804,-21.927,-29.922,-9.0339,0.038138,-3.3849,-37.948
-11.52,69.904,81.423,-29.192,-46.471,75.724,-12.497,-25.244,-5.5461,-8.4068,0.56458,-31.93
-18.602,68.07,86.673,-24.734,-52.637,77.351,-10.269,-24.484,-5.2094,-11.142,-2.3067,-27.567
-12.727,71.729,84.456,-29.501,-48.591,78.071,-16.853,-29.562,-8.7023,-6.5004,-13.316,-28.157
2.1437,79.096,76.953,-40.62,-37.405,78.15,-29.04,-37.964,-15.14,1.97,-26.006,-34.741
17.704,87.225,69.521,-52.465,-25.908,79.197,-39.344,-44.823,-19.259,10.584,-31.128,-41.414
26.091,91.064,64.973,-58.578,-19.441,77.767,-40.526,-43.748,-18.237,14.733,-25.997,-44.294
21.591,88.443,66.852,-55.017,-22.631,78.465,-34.881,-39.106,-14.174,10.586,-14.651,-43.392
4.1978,79.97,75.772,-42.084,-35.787,78.011,-23.989,-31.277,-8.0276,1.1616,-2.0583,-38.183
-11.69,71.569,83.259,-29.94,-47.474,77.37,-14.572,-26.104,-4.5683,-6.3771,2.0337,-31.788
-18.085,68.97,87.055,-25.443,-52.57,78.028,-11.787,-25.533,-4.1915,-9.17,-2.6116,-27.674
-11.61,72.809,84.419,-30.6,-48.014,78.62,-17.733,-30.588,-7.7157,-4.4494,-12.491,-28.059
3.066,80.794,77.728,-41.93,-37.331,80.018,-30.027,-37.945,-14.081,3.0523,-25.847,-34.851
18.82,88.414,69.594,-53.617,-25.387,79.233,-39.359,-43.968,-17.127,11.587,-31.238,-41.242
26.35,91.163,64.813,-58.757,-19.231,79.198,-42.32,-43.998,-16.729,15.702,-25.547,-44.89
18.819,86.484,67.665,-52.651,-24.423,77.31,-36.135,-38.315,-13.316,11.662,-13.422,-43.818
3.0259,78.916,75.89,-40.971,-36.432,78.144,-25.001,-31.062,-6.9006,1.9521,-2.2194,-38.785
-12.748,71.763,84.511,-29.508,-48.629,78.172,-15.407,-26.424,-3.864,-7.5255,1.3475,-32.089
-18.857,68.362,87.22,-24.752,-53.039,77.761,-13.731,-26.632,-4.3314,-12.198,-2.8886,-29.125
-14.126,72.398,86.524,-29.136,-50.325,79.496,-21.024,-31.522,-7.0387,-8.7224,-14.383,-30.876
0.1083,80.115,80.007,-40.112,-39.949,80.002,-32.035,-39.021,-12.885,0.8827,-27.036,-37.037
16.698,87.123,70.425,-51.91,-26.864,79.009,-42.561,-44.843,-16.543,7.0328,-33.255,-43.116
25.304,91.126,65.822,-58.215,-20.259,79.684,-44.763,-45.503,-16.337,9.0846,-27.532,-47.066
19.042,88.394,69.352,-53.718,-25.155,79.101,-38.066,-40.438,-12.128,4.5231,-15.446,-45.02
3.0161,80.047,77.031,-41.531,-37.007,79.296,-26.217,-32.945,-6.8426,-4.039,-3.3438,-39.019
-11.706,72.793,84.499,-30.544,-48.102,78.653,-17.44,-27.364,-2.698,-13.707,0.44327,-32.931
-17.486,71.482,88.968,-26.998,-53.227,80.239,-15.367,-27.749,-3.8653,-17.285,-4.328,-30.779
-11.867,76.57,88.438,-32.351,-50.153,82.459,-21.153,-31.78,-7.1342,-11.829,-16.625,-31.626
1.8248,84.855,83.03,-43.34,-40.603,84.084,-32.923,-38.996,-12.006,-2.0268,-27.862,-36.719
17.884,91.013,73.129,-54.448,-27.622,82.882,-43.461,-44.641,-15.282,5.1541,-33.568,-43.396
25.982,93.507,67.525,-59.745,-20.772,80.274,-44.064,-44.286,-14.16,9.1461,-28.53,-46.404
21.659,89.783,68.124,-55.721,-23.233,79.76,-37.681,-40.196,-10.848,5.7289,-17.134,-44.63
4.1597,79.843,75.684,-42.001,-35.762,77.916,-27.208,-32.994,-5.9358,-3.0567,-6.1659,-40.008
-11.67,72.02,83.689,-30.175,-47.679,77.792,-17.097,-25.97,-0.24358,-10.213,-0.47475,-32.597
-18.092,69.432,87.524,-25.67,-52.808,78.523,-14.298,-26.056,-1.2838,-13.667,-5.0626,-29.668
-11.611,73.964,85.575,-31.176,-48.593,79.722,-20.187,-31.663,-5.2954,-9.6338,-15.642,-31.274
3.8444,83.282,79.437,-43.563,-37.796,81.465,-31.837,-38.957,-9.8889,-0.044151,-27.854,-36.15
17.516,90.948,73.432,-54.232,-27.958,83.224,-41.493,-44.864,-13.522,8.3946,-32.055,-42.91
24.213,93.263,69.05,-58.738,-22.419,82.132,-44.2,-45.514,-13.696,11.203,-27.412,-46.193
17.483,87.732,70.25,-52.608,-26.383,80.023,-38.275,-40.394,-10.986,5.8461,-17.441,-46.656
2.3358,79.923,77.587,-41.129,-37.626,78.864,-26.764,-33.002,-5.8578,-3.1581,-5.9766,-41.052
-11.932,73.982,85.914,-31.025,-48.923,79.897,-16.614,-25.895,-1.5693,-11.223,-0.63302,-33.483
-19.082,72.018,91.1,-26.468,-55.091,81.609,-13.749,-26.225,-1.1712,-14.732,-4.8742,-28.956
-13.902,75.226,89.129,-30.662,-51.515,82.114,-19.776,-30.822,-4.7603,-9.948,-16.432,-30.924
-0.17675,82.529,82.705,-41.176,-41.441,82.71,-31.171,-38.991,-10.187,0.032591,-28.885,-36.255
17.046,92.016,74.97,-54.531,-28.962,83.327,-41.463,-45.635,-14.456,7.013,-34.456,-43.006
22.175,92.267,70.092,-57.221,-23.959,81.777,-43.868,-45.462,-14.462,9.4326,-29.753,-47.612
17.776,88.383,70.607,-53.079,-26.416,79.909,-36.393,-39.741,-9.3911,6.4359,-16.682,-45.491
3.1409,82.948,79.807,-43.044,-38.333,82.009,-24.833,-32.012,-3.039,-2.1922,-4.244,-38.741
-13.737,73.782,87.519,-30.023,-50.628,80.771,-15.687,-26.995,-0.68572,-12.465,0.68124,-31.901
-20.443,71.638,92.081,-25.598,-56.262,81.744,-12.661,-25.317,-0.060103,-15.121,-3.0827,-27.949
-14.889,75.22,90.109,-30.165,-52.499,82.8,-18.91,-30.725,-3.8995,-10.499,-17.004,-29.985
2.0099,84.955,82.945,-43.482,-40.467,83.749,-29.875,-37.796,-8.9317,-1.2403,-29.959,-35.946
16.239,92.138,75.899,-54.189,-29.83,84.49,-38.547,-42.925,-12.805,6.5178,-34.197,-42.208
22.404,93.633,71.229,-58.018,-24.413,82.911,-40.6,-43.367,-13.397,8.6412,-30.705,-45.926
17.528,88.359,70.832,-52.943,-26.652,80.174,-35.507,-39.191,-9.7206,3.3867,-19.583,-44.774
2.0119,81.079,79.067,-41.545,-38.527,80.358,-24.225,-31.929,-4.2674,-4.9138,-7.199,-39.004
-12.423,76.096,88.519,-31.836,-50.471,82.153,-13.252,-25.28,-0.32058,-13.61,-1.3103,-31.845
-19.741,73.444,93.185,-26.852,-56.463,83.429,-11.483,-25.802,-0.83524,-17.726,-7.0212,-29.832
-12.98,77.367,90.346,-32.193,-51.663,83.751,-17.075,-29.739,-4.1129,-13.574,-18.891,-30.585
2.9645,85.143,82.179,-44.054,-39.607,84.582,-28.093,-37.033,-9.0617,-4.1905,-29.988,-35.756
16.434,91.977,75.542,-54.205,-29.554,83.574,-37.116,-42.601,-12.162,3.4403,-36.24,-42.335
23.576,94.453,70.877,-59.014,-23.65,83.279,-39.17,-42.364,-11.7,6.0669,-30.946,-45.807
18.418,92.003,73.586,-55.21,-27.584,83.19,-33.246,-37.522,-8.3327,1.636,-19.656,-44.911
2.2292,84.191,81.961,-43.21,-39.866,82.935,-21.041,-29.874,-1.9423,-7.2989,-7.1052,-38.018
-13.943,75.232,89.176,-30.644,-51.56,82.283,-11.432,-24.44,0.017419,-17.268,-2.8099,-32.144
-21.529,71.582,93.112,-25.027,-57.32,82.297,-9.6765,-24.627,-0.16018,-21.068,-8.4886,-28.989
-16.498,73.874,90.372,-28.688,-53.435,82.154,-17.121,-29.511,-3.8477,-17.822,-20.472,-31.663
-0.067874,82.938,83.006,-41.435,-41.537,82.953,-27.786,-37.017,-8.9363,-7.9318,-32.872,-37.104
16.765,93.589,76.824,-55.177,-30.03,85.215,-36.575,-41.498,-11.481,0.31122,-37.075,-42.036
22.987,96.042,73.055,-59.515,-25.034,84.548,-38.641,-41.461,-11.3,3.274,-32.076,-46.048
16.764,91.612,74.848,-54.188,-29.042,83.222,-32.845,-36.401,-7.7842,-2.231,-20.512,-44.655
0.021867,82.899,82.877,-41.46,-41.428,82.905,-21.129,-29.057,-2.2419,-11.888,-9.9936,-40.004
-14.207,76.037,90.244,-30.915,-52.226,83.112,-11.519,-22.988,0.44006,-20.684,-5.6157,-32.603
-20.53,73.502,94.032,-26.486,-57.281,83.812,-8.8075,-23.115,0.83966,-24.258,-10.27,-29.657
-14.744,76.747,91.491,-31.002,-53.118,84.042,-14.733,-27.984,-2.7921,-19.433,-23.231,-31.288
0.12649,83.862,83.735,-41.994,-41.804,83.982,-27.021,-34.839,-8.123,-11.112,-36.79,-36.962
15.803,91.667,75.864,-53.735,-30.03,84.517,-36.261,-40.95,-12.562,-3.6246,-41.265,-44.253
23.306,95.213,71.907,-59.259,-24.301,83.432,-37.57,-41.429,-12.243,-0.79928,-37.67,-47.977
16.467,91.14,74.673,-53.803,-29.103,82.98,-31.862,-36.495,-8.8425,-6.1384,-26.604,-46.08
1.229,83.074,81.845,-42.152,-40.308,83.203,-20.143,-28.046,-3.1146,-16.067,-14.239,-39.984
-15.282,73.348,88.629,-29.033,-51.956,81.044,-10.452,-22.282,0.32237,-25.556,-9.4313,-33.832
-22.925,71.484,94.409,-24.28,-58.667,82.881,-8.2468,-23.147,-0.8225,-30.101,-14.854,-30.033
-14.659,76.522,91.181,-30.932,-52.92,83.941,-14.945,-28.62,-4.7736,-27.472,-27.697,-31.872
0.054695,85.015,84.961,-42.535,-42.453,84.838,-25.909,-35.951,-11.023,-17.988,-39.692,-38.171
17.027,93.188,76.161,-55.107,-29.567,85.08,-34.456,-40.557,-14.354,-8.6587,-44.303,-44.902
23.746,94.684,70.938,-59.215,-23.596,83.409,-36.808,-40.393,-14.926,-7.5689,-38.46,-47.908
16.379,88.676,72.297,-52.527,-27.959,80.328,-30.055,-35.486,-11.101,-12.423,-26.564,-46.118
1.2734,80.894,79.621,-41.084,-39.174,81.134,-18.146,-28.763,-6.9108,-22.889,-14.099,-39.943
-15.175,73.861,89.036,-29.343,-52.106,81.413,-8.3864,-23.496,-3.4275,-32.608,-9.918,-33.883
-21.51,72.165,93.676,-25.328,-57.593,82.926,-6.3929,-23.564,-4.1295,-37.131,-14.936,-29.956
-15.296,75.021,90.317,-29.862,-52.806,82.695,-12.138,-28.597,-8.9972,-33.827,-27.018,-31.995
0.029277,82.858,82.829,-41.444,-41.4,82.766,-23.872,-36.708,-14.943,-23.87,-40.13,-37.904
16.475,91.305,74.83,-53.89,-29.178,83.355,-33.463,-42.16,-19.556,-15.955,-45.017,-44.43
21.925,92.536,70.611,-57.231,-24.343,82.663,-36.227,-43.562,-19.691,-13.854,-40.149,-49.15
15.713,87.427,71.714,-51.57,-28.001,80.556,-30.232,-38.453,-16.973,-19.163,-27.904,-46.98
0.030676,79.111,79.08,-39.571,-39.525,79.218,-18.073,-30.06,-11.921,-28.946,-14.96,-41.053
-14.567,71.57,86.137,-28.501,-50.352,78.815,-9.6385,-25.679,-8.7774,-37.605,-9.8059,-34.774
-21.142,68.975,90.116,-23.916,-55.629,79.555,-6.7388,-26.761,-9.7527,-41.666,-15.483,-31.115
-14.595,72.812,87.407,-29.109,-51.001,80.118,-12.763,-31.438,-13.834,-38.283,-27.488,-32.214
0.8692,79.891,79.022,-40.38,-39.076,80.272,-25.064,-39.113,-20.85,-29.224,-39.894,-37.969
15.915,86.17,70.255,-51.042,-27.17,79.418,-35.356,-44.58,-25.704,-20.271,-45.263,-45.291
25.131,89.818,64.687,-57.475,-19.778,77.614,-36.448,-44.321,-25.092,-16.736,-39.508,-48.865
16.482,84.848,68.365,-50.665,-25.942,77.255,-31.571,-40.174,-22.592,-22.184,-27.511,-47.835
